Time, Time Since Begin, V/V Raw Data, Force 
1574958396.103416,0.2072911262512207,-1.7285e-05,-105.46246400000001
1574958396.353466,0.45734119415283203,-1.8345192e-05,-109.3113850368
1574958396.4058964,0.5097715854644775,-1.8261373e-05,-109.0070885392
1574958396.437278,0.5411531925201416,-1.8285587e-05,-109.0949950448
1574958396.4841504,0.5880255699157715,-1.8472783e-05,-109.7745914032
1574958396.531492,0.6353671550750732,2.8223731e-05,59.7524330224
1574958396.5718048,0.6756799221038818,0.000139707699,464.4838304496
1574958396.6030543,0.7069294452667236,0.000289677642,1008.9347115168
1574958396.6499314,0.7538065910339355,0.000441430137,1559.8569693647999
1574958396.6968067,0.8006818294525146,0.000585643575,2083.4094346800002
1574958396.7411642,0.8450393676757812,0.000714956783,2552.8681050032
1574958396.7739022,0.8777773380279541,0.000828323886,2964.4360357344003
1574958396.8298318,0.9337069988250732,0.000928533264,3328.2361616256003
1574958396.8695543,0.9734294414520264,0.001021756791,3666.6748540464005
1574958396.9008052,1.0046803951263428,0.001104258932,3966.1906267328004
1574958396.947677,1.0515520572662354,0.001153424382,4144.6808764128
1574958396.9945512,1.098426342010498,0.001185254194,4260.2358258976
1574958397.0387363,1.1426115036010742,0.001196070574,4299.503611849599
1574958397.0715911,1.1754662990570068,0.001191735268,4283.764716947199
1574958397.1184733,1.2223484516143799,0.001189829782,4276.847040572799
1574958397.1671107,1.2709858417510986,0.001188654453,4272.5801261712
1574958397.2041042,1.3079793453216553,0.00118793454,4269.966554016
1574958397.2353516,1.3392267227172852,0.001187101007,4266.9404958128
1574958397.2822304,1.3861055374145508,0.001137609594,4087.2668700576
1574958397.329103,1.4329781532287598,0.001022023149,3667.6418401296
1574958397.3603556,1.4642307758331299,0.000860813074,3082.3847838496004
1574958397.4070988,1.5109739303588867,0.000671729445,2395.935577128
1574958397.4541032,1.5579783916473389,0.000472597778,1673.0079732512
1574958397.5009816,1.6048567295074463,0.00027625449,960.2033004960001
1574958397.5380313,1.641906499862671,0.000108615495,351.606693048
1574958397.582298,1.6861732006072998,4.145317e-06,-27.661841163200002
1574958397.6228218,1.7266969680786133,-0.000107450411,-432.79897209439997
1574958397.6698232,1.773698329925537,-0.000208041631,-797.9853371824
1574958397.7102845,1.814159631729126,-0.00027262792,-1032.459400768
1574958397.7416668,1.8455419540405273,-0.000278413296,-1053.4626297983998
1574958397.788542,1.8924171924591064,-0.000258972868,-982.8860999872
1574958397.835413,1.9392881393432617,-0.000230021775,-877.78205196
1574958397.8822913,1.9861664772033691,-0.000194177032,-747.6512969728
1574958397.9291642,2.0330393314361572,-0.000158828683,-619.3226507632
1574958397.9760456,2.079920768737793,-0.000125425868,-498.0570711872
1574958398.0276504,2.1315255165100098,-1.177192e-06,-46.984677836799996
1574958398.0717845,2.175659656524658,0.000124070793,407.71560690719997
1574958398.1186624,2.2225375175476074,0.000283292495,985.754073848
1574958398.165535,2.2694101333618164,0.000446459278,1578.1147628511999
1574958398.212416,2.316291093826294,0.000600100495,2135.893837048
1574958398.2592905,2.3631656169891357,0.000739659183,2642.5476979632
1574958398.3061662,2.410041332244873,0.000859071501,3076.0621772304003
1574958398.352958,2.4568331241607666,0.000968909822,3474.8192177888
1574958398.399912,2.5037872791290283,0.001067599282,3833.1014333728003
1574958398.4602568,2.56413197517395,0.001152001321,4139.5145957584
1574958398.5080042,2.611879348754883,0.00120759476,4341.341016704
1574958398.5561903,2.6600654125213623,0.001219538972,4384.7032839488
1574958398.6030586,2.7069337368011475,0.001215858385,4371.341280904
1574958398.6498048,2.7536799907684326,0.001213984564,4364.5385611455995
1574958398.700075,2.803950071334839,0.001212571748,4359.409473939199
1574958398.7438283,2.847703456878662,0.001212078147,4357.617504868799
1574958398.7906997,2.8945748805999756,0.001211041585,4353.854370184
1574958398.8375797,2.9414548873901367,0.001188719645,4272.816799208
1574958398.8844502,2.988325357437134,0.001076055691,3863.8015806064004
1574958398.9313323,3.035207509994507,0.00089656841,3212.1909556640003
1574958398.9879618,3.091836929321289,0.000680415891,2427.4708506864004
1574958399.035578,3.139453172683716,0.000451238826,1595.4664339104002
1574958399.087305,3.1911802291870117,0.000229777768,791.4742089472
1574958399.1343114,3.2381865978240967,6.1937608e-05,182.1472920832
1574958399.1811876,3.285062789916992,-5.3541735e-05,-237.08891474399996
1574958399.2280629,3.3319380283355713,-0.000177918002,-688.6245144608
1574958399.2749405,3.3788156509399414,-0.000269285403,-1020.3247270512
1574958399.3218155,3.4256906509399414,-0.000283914618,-1073.4346291872
1574958399.3686888,3.4725639820098877,-0.000259531662,-984.9147457247999
1574958399.4154842,3.5193593502044678,-0.000225459225,-861.21817044
1574958399.4684315,3.5723066329956055,-0.000188092701,-725.5627417104
1574958399.5048623,3.6087374687194824,-0.000142395496,-559.6636086784
1574958399.5575044,3.66137957572937,-1.996756e-06,-49.9600229824
1574958399.6045055,3.708380699157715,0.000125999562,414.7178098847999
1574958399.6513844,3.7552595138549805,0.00028378237,987.5325160479999
1574958399.69826,3.8021352291107178,0.000446229242,1577.2796401567998
1574958399.7451336,3.849008798599243,0.000598524697,2130.1730599888006
1574958399.7920136,3.8958888053894043,0.000736895017,2632.5126697168002
1574958399.8545132,3.958388328552246,0.00085556414,3063.3290538560004
1574958399.901388,4.005263090133667,0.000964742154,3459.6889158816
1574958399.9478858,4.051760911941528,0.001065848395,3826.7450132080003
1574958399.9890776,4.092952728271484,0.001151526347,4137.7902501488
1574958400.0472064,4.151081562042236,0.0012081936,4343.51504544
1574958400.0898638,4.19373893737793,0.001224054024,4401.094728729599
1574958400.1368585,4.240733623504639,0.001219908707,4386.0455698928
1574958400.183694,4.287569046020508,0.001218371093,4380.4634160272
1574958400.2306144,4.334489583969116,0.00121702347,4375.571005488
1574958400.2774916,4.381366729736328,0.001216361299,4373.167059889599
1574958400.3711085,4.4749836921691895,0.001215767115,4371.009934295999
1574958400.3711085,4.4749836921691895,0.001215128228,4368.690518931199
1574958400.4287848,4.532660007476807,0.001165369526,4188.0465271903995
1574958400.4732404,4.577115535736084,0.001027764753,3688.4861592912002
1574958400.5253294,4.629204511642456,0.000831352547,2975.4312866288005
1574958400.573552,4.677427053451538,0.000606495887,2159.1116681648004
1574958400.620426,4.724301099777222,0.000376876444,1325.5012422976001
1574958400.6672986,4.771173715591431,0.000164789148,555.5395228991999
1574958400.7141778,4.8180530071258545,2.6185066e-05,52.35126360640001
1574958400.7610548,4.864929914474487,-0.000100747682,-408.46538473280003
1574958400.8079286,4.911803722381592,-0.000220471062,-843.1091434848
1574958400.8548057,4.958680868148804,-0.000289460644,-1093.5689219776
1574958400.911337,5.015212059020996,-0.000284072943,-1074.0094122671999
1574958400.9554794,5.059354543685913,-0.000257222913,-976.5330633552
1574958401.0068953,5.1107704639434814,-0.000221178867,-845.6787587568
1574958401.0417678,5.145642995834351,-0.000183787197,-709.9320399888
1574958401.088769,5.192644119262695,-0.0001390744,-547.60670176
1574958401.1512742,5.2551493644714355,-1.909211e-06,-49.6421996144
1574958401.1981485,5.302023649215698,0.000126153231,415.27568982239995
1574958401.2450247,5.348899841308594,0.000283736736,987.3668463744
1574958401.2919004,5.395775556564331,0.000446881168,1579.6463923072001
1574958401.3387792,5.442654371261597,0.000598948449,2131.7114492496003
1574958401.3855493,5.489424467086792,0.000737264752,2633.8549556608
1574958401.4371722,5.5410473346710205,0.000855278224,3062.2910644096
1574958401.4738455,5.577720642089844,0.000964579172,3459.0972260288004
1574958401.5333002,5.6371753215789795,0.00106390845,3819.7022368800003
1574958401.5744424,5.678317546844482,0.001151645556,4138.223026502399
1574958401.6213164,5.725191593170166,0.001212379895,4358.712970808
1574958401.668193,5.77206826210022,0.001232619397,4432.1904588688
1574958401.7238948,5.827769994735718,0.001228528097,4417.3374033488
1574958401.7755327,5.87940788269043,0.001226756722,4410.9066035487995
1574958401.8225327,5.926407814025879,0.001225538552,4406.4841591808
1574958401.8693042,5.973179340362549,0.001224789768,4403.7657737472
1574958401.9193516,6.023226737976074,0.001224160194,4401.4801682976
1574958401.9556153,6.059490442276001,0.001223637722,4399.5833859488
1574958402.0152256,6.11910080909729,0.001223181374,4397.9266601696
1574958402.055664,6.159539222717285,0.001222794876,4396.5235178304
1574958402.1026566,6.206531763076782,0.001222549938,4395.6342949151995
1574958402.149532,6.25340723991394,0.001201343723,4318.6472519792
1574958402.1964085,6.300283670425415,0.001088777557,3909.9870429328
1574958402.2432857,6.347160816192627,0.000908778049,3256.5168290896
1574958402.2901614,6.394036531448364,0.000687699765,2453.9142268560004
1574958402.3508823,6.454757452011108,0.000454287976,1606.5360680704
1574958402.3877578,6.49163293838501,0.000228552148,787.0247180992001
1574958402.4347036,6.538578748703003,6.0074963e-05,175.38514567520002
1574958402.4815762,6.585451364517212,-6.0442835e-05,-262.142668184
1574958402.5415945,6.645469665527344,-0.000189286657,-729.8972795728
1574958402.5798345,6.683709621429443,-0.000282142311,-1067.0004458544
1574958402.6267114,6.730586528778076,-0.000297495164,-1122.7374433856
1574958402.6735864,6.777461528778076,-0.000271578319,-1028.6489292976
1574958402.7204611,6.824336290359497,-0.000234888867,-895.4515427568
1574958402.7829614,6.886836528778076,-0.000195466913,-752.3340809552
1574958402.8287158,6.932590961456299,-0.000157538801,-614.6398631504001
1574958402.873249,6.977124214172363,-8.647982e-05,-356.667338528
1574958402.920129,7.024004220962524,4.4549815e-05,119.02264837599999
1574958402.9670038,7.070878982543945,0.000184873119,628.4523712176
1574958403.0223567,7.126231908798218,0.000347274356,1218.0338220224
1574958403.0705101,7.17438530921936,0.00050659664,1796.437441856
1574958403.1173847,7.221259832382202,0.000653386116,2329.3419555264004
1574958403.1642597,7.268134832382202,0.000783619471,2802.1411275184
1574958403.2111382,7.315013408660889,0.000897362828,3215.0750107712
1574958403.2580142,7.361889362335205,0.001002940349,3598.3636430096003
1574958403.3105254,7.414400577545166,0.001099508256,3948.9437725824
1574958403.3553684,7.459243535995483,0.001178620383,4236.1524384432
1574958403.402289,7.506164073944092,0.001227158122,4412.3638461088
1574958403.4491603,7.553035497665405,0.001232742332,4432.6367620927995
1574958403.4959948,7.599869966506958,0.001229939051,4422.4597307504
1574958403.5398145,7.6436896324157715,0.001228511333,4417.2765433232
1574958403.5868175,7.690692663192749,0.001227514818,4413.6587952672
1574958403.6336946,7.737569808959961,0.001226865686,4411.3021864544
1574958403.68057,7.78444504737854,0.001226273365,4409.151824296
1574958403.7430718,7.846946954727173,0.001225909218,4407.8298250272
1574958403.7898443,7.893719434738159,0.001225246117,4405.422503156799
1574958403.8375902,7.941465377807617,0.001154635102,4149.0762743008
1574958403.8737078,7.977582931518555,0.001002426259,3596.4972906736007
1574958403.9206245,8.024499654769897,0.00079699792,2850.7102487680004
1574958403.983129,8.0870041847229,0.0005663177,2013.24877808
1574958404.0283918,8.132266998291016,0.000332760625,1165.343173
1574958404.0720325,8.175907611846924,0.000127049163,418.5282813552
1574958404.1189532,8.222828388214111,1.5832e-08,-42.6535235072
1574958404.1658263,8.269701480865479,-0.000133790076,-528.4224919104
1574958404.212699,8.316574096679688,-0.000250604004,-952.5037761216
1574958404.2695506,8.373425722122192,-0.000272830017,-1033.1930937168
1574958404.306116,8.409991264343262,-9.1861933e-05,-376.2065615632
1574958404.353035,8.456910133361816,5.0438568e-05,140.4011772672
1574958404.4155328,8.519407987594604,0.000193374231,659.3148082224
1574958404.4624133,8.566288471221924,0.000357132405,1253.8224831119999
1574958404.5098426,8.613717794418335,0.000516655855,1832.956415992
1574958404.555285,8.659160137176514,0.000663540326,2366.2057995104
1574958404.6021638,8.70603895187378,0.000793289393,2837.2468123472004
1574958404.6490357,8.752910852432251,0.000907910988,3253.3690508352
1574958404.6957977,8.799672842025757,0.001013562083,3636.9247861232006
1574958404.748718,8.852593183517456,0.001108910888,3983.0790877952
1574958404.7902026,8.894077777862549,0.001185361296,4260.6246489984
1574958404.8372102,8.94108533859253,0.001228572801,4417.4996967504
1574958404.8840854,8.987960577011108,0.001231178641,4426.9599382864
1574958404.9309607,9.034835815429688,0.001228801906,4418.3314395423995
1574958404.9778378,9.0817129611969,0.001227514818,4413.6587952672
1574958405.0378735,9.141748666763306,0.001226608641,4410.369010286399
1574958405.0740764,9.177951574325562,0.001226041466,4408.3099381664
1574958405.1208465,9.224721670150757,0.001225522719,4406.4266790576
1574958405.1834507,9.287325859069824,0.001225084998,4404.837576739199
1574958405.230966,9.334841251373291,0.001224823296,4403.8874937984
1574958405.2710981,9.37497329711914,0.001174311154,4220.508213481599
1574958405.3179746,9.421849727630615,0.001035761088,3717.5160538751998
1574958405.3647156,9.46859073638916,0.000841561705,3012.494613832
1574958405.4116428,9.515517950057983,0.000614911318,2189.6630488672004
1574958405.458599,9.562474250793457,0.000381952152,1343.9280926208
1574958405.5054705,9.60934567451477,0.000167092308,563.9009149632
1574958405.5575328,9.661407947540283,2.6649795e-05,54.03841576800001
1574958405.6045325,9.708407640457153,-0.000102028251,-413.11436243040004
1574958405.6588755,9.762750625610352,-0.000224829651,-858.9325649904
1574958405.7114007,9.81527590751648,-0.000295941718,-1117.0978130272
1574958405.7562108,9.86008596420288,-0.000291143544,-1099.6785221375999
1574958405.8031137,9.906988859176636,-0.000263080932,-997.8000155328001
1574958405.8499956,9.95387077331543,-0.000226418488,-864.7006788351999
1574958405.8968673,10.000742435455322,-0.000188260339,-726.1713347056
1574958405.9436567,10.047531843185425,-0.000151672401,-593.3424845904
1574958405.9906223,10.094497442245483,-0.000120806508,-481.2869466432
1574958406.0468817,10.1507568359375,-9.4950199e-05,-387.4182024496
1574958406.0867317,10.190606832504272,-7.5111166e-05,-315.3945770464
1574958406.13351,10.237385272979736,-6.2181614e-05,-268.4551314656
1574958406.1907012,10.294576406478882,-5.5162236e-05,-242.9719815744
1574958406.2349489,10.338824033737183,-3.137812e-05,-156.626126848
1574958406.2819533,10.385828495025635,7.4354932e-05,227.2271451328
1574958406.3288276,10.432702779769897,0.000219523907,754.2485919728
1574958406.375903,10.479778051376343,0.000382496044,1345.9026381376
1574958406.422911,10.526786088943481,0.000539597124,1916.2423989696
1574958406.4697802,10.573655366897583,0.000683772378,2439.6562410912
1574958406.525999,10.629874229431152,0.000809385441,2895.6819050064
1574958406.570053,10.673928260803223,0.000922051258,3304.7038870432
1574958406.6169317,10.72080683708191,0.001025542617,3680.4189167568006
1574958406.670271,10.77414608001709,0.001118905842,4019.3647687968
1574958406.7065713,10.810446500778198,0.001191802323,4284.0081534192
1574958406.7534838,10.857358932495117,0.001231451519,4427.9505945776
1574958406.8158581,10.91973328590393,0.001232009381,4429.9758567824
1574958406.8627377,10.966612815856934,0.001229792833,4421.9289009232
1574958406.909735,11.013610124588013,0.001228625886,4417.6924165344
1574958406.956613,11.060488224029541,0.001227676868,4414.2471015872
1574958407.0034866,11.107361793518066,0.001227169298,4412.4044194592
1574958407.04041,11.144285202026367,0.001226666383,4410.5786368432
1574958407.1030354,11.206910610198975,0.001226088032,4408.4789913728
1574958407.1497824,11.253657579421997,0.001159464009,4166.6071382736
1574958407.1980608,11.301935911178589,0.00100780651,3616.029753904
1574958407.238088,11.341963052749634,0.000804644078,2878.4688607712
1574958407.2850962,11.388971328735352,0.000572997145,2037.497835208
1574958407.3319716,11.43584680557251,0.000338765793,1187.1443349072001
1574958407.3788466,11.48272180557251,0.00013082847,432.248677488
1574958407.4257252,11.529600381851196,1.612119e-06,-36.8583631824
1574958407.4726,11.576475143432617,-0.000132334419,-523.1378747376
1574958407.532593,11.636468172073364,-0.000251430087,-955.5027878448
1574958407.5723116,11.676186800003052,-0.00030691456,-1156.933618624
1574958407.6296556,11.733530759811401,-0.000292723067,-1105.4128224368
1574958407.6739619,11.777837038040161,-0.000261982903,-993.8137310512
1574958407.7208362,11.824711322784424,-0.000223396346,-853.7290945184
1574958407.7677147,11.87158989906311,-0.000183210708,-707.8391543232
1574958407.8145874,11.91846251487732,-4.6543777e-05,-211.6835280208
1574958407.861464,11.965339183807373,8.1656501e-05,253.73476123039995
1574958407.9083402,12.012215375900269,0.000230331905,793.485947912
1574958407.9552138,12.059088945388794,0.000393367372,1385.3699073088
1574958408.0020921,12.105967283248901,0.000549511053,1952.2339268112
1574958408.0548446,12.158719778060913,0.000691917725,2469.2271088400003
1574958408.108438,12.212313175201416,0.000815602951,2918.2539533104004
1574958408.1565778,12.26045298576355,0.0009273123,3323.8035739200004
1574958408.2035606,12.307435750961304,0.00103055127,3698.602330608
1574958408.2552817,12.359156847000122,0.001122320071,4031.7597857584
1574958408.299506,12.403381109237671,0.001192434691,4286.3039022064
1574958408.346514,12.45038914680481,0.001227705739,4414.3519148656
1574958408.3933883,12.497263431549072,0.001225963235,4408.025928344
1574958408.4401467,12.544021844863892,0.001224092208,4401.2333519232
1574958408.4871397,12.591014862060547,0.001222962514,4397.1321108256
1574958408.539854,12.643729209899902,0.001222223975,4394.45091884
1574958408.5890827,12.692957878112793,0.001221725717,4392.6420429968
1574958408.6373553,12.741230487823486,0.001219679601,4385.2138234704
1574958408.6842318,12.788106918334961,0.001144222915,4111.275870616
1574958408.7311087,12.834983825683594,0.000989537686,3549.7066152544003
1574958408.7779853,12.881860494613647,0.000788453035,2819.6888982640003
1574958408.824862,12.928737163543701,0.000561955385,1997.4118297040002
1574958408.8717363,12.975611448287964,0.000332628377,1164.8630598608001
1574958408.9186113,13.022486448287964,0.000129121356,426.0511708224
1574958408.9654872,13.06936240196228,2.518296e-06,-33.5685782016
1574958409.012363,13.116238117218018,-0.000128282234,-508.42682231360004
1574958409.071174,13.175049066543579,-0.00024326425,-925.8575332
1574958409.1078882,13.211763381958008,-0.000298166648,-1125.1751988992
1574958409.1548078,13.2586829662323,-0.000283402391,-1071.5750402864
1574958409.201682,13.305557250976562,-0.00025188271,-957.1459903840001
1574958409.2640574,13.367932558059692,-0.00021411851,-820.046838704
1574958409.311061,13.414936065673828,-0.000141618773,-556.8437934992
1574958409.3579345,13.461809635162354,7.966533e-06,-13.789298596800002
1574958409.4048104,13.50868558883667,0.000140408985,467.02977914400003
1574958409.4516897,13.555564880371094,0.000301401131,1051.4956659824
1574958409.4985578,13.6024329662323,0.000463051721,1638.3519679184
1574958409.5508626,13.654737710952759,0.00061458163,2188.466149552
1574958409.591361,13.695236206054688,0.000750890933,2683.3234431632004
1574958409.6383617,13.742236852645874,0.000867761672,3107.6109740288002
1574958409.685141,13.789016246795654,0.000976768322,3503.3487161888006
1574958409.7321177,13.835992813110352,0.001075489447,3861.7458883888
1574958409.778993,13.88286805152893,0.001162822358,4178.7992884832
1574958409.8258703,13.929745435714722,0.001221705228,4392.5676597311995
1574958409.872749,13.976624250411987,0.001240214333,4459.7631145232
1574958409.9352422,14.039117336273193,0.001236466691,4446.1576750064
