Time, Time Since Begin, V/V Raw Data, Force 
1574958476.041458,0.1910867691040039,-5.734e-05,-250.87813599999998
1574958476.2928522,0.44248104095458984,-5.8230944e-05,-254.11261909759997
1574958476.3241026,0.47373151779174805,-5.8215111e-05,-254.0551389744
1574958476.3709686,0.5205974578857422,-5.8123842e-05,-253.7237959968
1574958476.4178467,0.5674755573272705,-5.8110803e-05,-253.67645921119998
1574958476.464717,0.6143457889556885,-5.8082864e-05,-253.57502946559998
1574958476.504459,0.6540877819061279,-5.8057718e-05,-253.48373942720002
1574958476.5535877,0.703216552734375,-5.8119185e-05,-253.706889224
1574958476.5882096,0.7378385066986084,-5.8157369e-05,-253.8455124176
1574958476.6194525,0.7690813541412354,-5.8139674e-05,-253.78127248959998
1574958476.6718912,0.8215200901031494,-5.8176927e-05,-253.9165157808
1574958476.7087743,0.858403205871582,-5.8167614e-05,-253.88270586559997
1574958476.7557788,0.9054076671600342,-1.212582e-06,-47.1131576928
1574958476.7870224,0.9366512298583984,0.000102814287,330.5459875248
1574958476.8338962,0.9835250377655029,0.000235505402,812.2678114208
1574958476.880768,1.0303969383239746,0.00037917681,1333.852491024
1574958476.927638,1.0772669315338135,0.000517281704,1835.2284982016
1574958476.958882,1.108510971069336,0.000646525994,2304.4369686176005
1574958477.0057607,1.1553895473480225,0.000761698,2722.5574192000004
1574958477.0503235,1.1999523639678955,0.000862694345,3089.214550088
1574958477.0955338,1.2451627254486084,0.000955107622,3424.7117109088
1574958477.1248727,1.2745015621185303,0.001043361612,3745.1089962048
1574958477.1717381,1.3213670253753662,0.001127499156,4050.5619359424
1574958477.202987,1.3526158332824707,0.001206321642,4336.7190891168
1574958477.2654788,1.4151077270507812,0.001281545497,4609.8117723088
1574958477.296598,1.4462268352508545,0.001343846321,4835.988683758399
1574958477.3435583,1.4931871891021729,0.001385758631,4988.1471339824
1574958477.3748496,1.5244784355163574,0.001402671449,5049.5474284495995
1574958477.4217222,1.5713510513305664,0.001396058127,5025.5384242608
1574958477.4685934,1.6182222366333008,0.001391927712,5010.543365644799
1574958477.512551,1.662179946899414,0.001389653422,5002.2867832288
1574958477.5525415,1.7021703720092773,0.001388005912,4996.305662924799
1574958477.5892365,1.7388653755187988,0.001386906952,4992.315998540799
1574958477.6405323,1.7901611328125,0.001350118779,4858.7602152816
1574958477.6803105,1.829939365386963,0.001229276881,4420.0557887824
1574958477.7202997,1.8699285984039307,0.001050223596,3770.0207429184006
1574958477.7658641,1.9154930114746094,0.000826640055,2958.3230556720005
1574958477.8127363,1.9623651504516602,0.000562516041,1999.4472352464002
1574958477.8596098,2.0092387199401855,0.000302943401,1057.0947229904
1574958477.9063952,2.0560240745544434,9.0924092e-05,287.37982359679995
1574958477.9588714,2.1085002422332764,-4.5582652e-05,-208.19425982080003
1574958478.00719,2.1568188667297363,-0.000200900249,-772.0592639696
1574958478.0579903,2.2076191902160645,-0.000324936584,-1222.3607745536
1574958478.1055546,2.255183458328247,-0.000361040235,-1353.431469144
1574958478.1524272,2.302056074142456,-0.00033272896,-1250.650216384
1574958478.199296,2.3489248752593994,-0.000289312564,-1093.0313323456
1574958478.246174,2.3958029747009277,-0.000239785761,-913.2292267344001
1574958478.2930443,2.4426732063293457,-0.00019085221,-735.580863184
1574958478.339914,2.4895429611206055,-0.000145741738,-571.8118056352
1574958478.3867874,2.5364162921905518,-0.000108227134,-435.6187872736
1574958478.4395075,2.5891363620758057,-7.8837387e-05,-328.92224976480003
1574958478.4878068,2.6374356746673584,-5.5025332e-05,-242.4749652928
1574958478.5359123,2.6855411529541016,-4.1673891e-05,-194.00389388640002
1574958478.5720015,2.721630334854126,-3.5386533e-05,-171.17826940319998
1574958478.618869,2.768497943878174,-3.5474077e-05,-171.4960891408
1574958478.6813643,2.830993175506592,-3.6092475e-05,-173.74112123999998
1574958478.728241,2.8778698444366455,-3.5444275e-05,-171.38789595999998
1574958478.7751136,2.9247424602508545,-3.6121346e-05,-173.8459345184
1574958478.821984,2.9716129302978516,-3.5840087e-05,-172.82485184479998
1574958478.8688552,3.018484115600586,-3.5703182e-05,-172.3278319328
1574958478.9199286,3.0695574283599854,-3.6218204e-05,-174.19756780160003
1574958478.9565592,3.1061880588531494,-3.5533682e-05,-171.7124791328
1574958479.0162437,3.165872573852539,5.207956e-06,-23.8040365376
1574958479.0584223,3.2080512046813965,0.000126076862,414.9984398048
1574958479.1053767,3.2550055980682373,0.000281983055,981.0002828720001
1574958479.1522532,3.301882028579712,0.000441233627,1559.1435594608001
1574958479.199122,3.3487508296966553,0.000593293458,2111.1815699232
1574958479.2459946,3.3956234455108643,0.000727226958,2597.4137483232
1574958479.2928643,3.442493200302124,0.000844229944,3022.1813886976
1574958479.3397377,3.4893665313720703,0.000949352048,3403.8166750592004
1574958479.4001787,3.549807548522949,0.001046942547,3758.1092226287997
1574958479.4405415,3.590170383453369,0.001139697619,4094.8472360175997
1574958479.4874573,3.6370861530303955,0.001226373948,4409.5169808191995
1574958479.5416164,3.6912453174591064,0.001308851875,4708.944847
1574958479.5886128,3.738241672515869,0.001378474757,4961.703757812799
1574958479.6354878,3.785116672515869,0.001419892535,5112.066859064
1574958479.682234,3.8318629264831543,0.001420806162,5115.3836905248
1574958479.729231,3.8788599967956543,0.00141587574,5097.484286495999
1574958479.7761016,3.9257304668426514,0.001413780265,5089.876874056
1574958479.8229766,3.9726054668426514,0.001412339509,5084.646353473599
1574958479.8795447,4.0291736125946045,0.001410088502,5076.4742976607995
1574958479.9234111,4.073040008544922,0.001325277612,4768.5768426048
1574958479.9701602,4.119789123535156,0.00114205759,4103.414874736
1574958480.0222185,4.171847343444824,0.000899984501,3224.5927324304002
1574958480.0740943,4.2237231731414795,0.000626618043,2232.1631433072002
1574958480.1210895,4.270718336105347,0.000352669507,1237.6203782128
1574958480.1679618,4.317590713500977,0.00011971686,391.909088544
1574958480.2148325,4.364461421966553,-2.8084964e-05,-144.6706533056
1574958480.2617054,4.411334276199341,-0.000192654319,-742.1232396976001
1574958480.308578,4.45820689201355,-0.000331059098,-1244.5879493792002
1574958480.3615084,4.511137247085571,-0.000385094434,-1440.7578331936
1574958480.4059575,4.555586338043213,-0.000360126607,-1350.1146340528
1574958480.4527984,4.602427244186401,-0.000301686116,-1137.9522755264
1574958480.499722,4.649350881576538,-0.000101271085,-410.365546984
1574958480.5518277,4.701456546783447,4.6357512e-05,125.5853115648
1574958480.5877252,4.737354040145874,0.000184440985,626.883551944
1574958480.6500921,4.799721002578735,0.000345622189,1212.0357949456002
1574958480.6970978,4.846726655960083,0.000501074828,1776.3910555711998
1574958480.7439673,4.893596172332764,0.000646003522,2302.5401862688004
1574958480.7908394,4.9404683113098145,0.000770004466,2752.7132133664004
1574958480.8391025,4.988731384277344,0.000880501233,3153.8606762832005
1574958480.8756294,5.025258302688599,0.000982264057,3523.3004325328
1574958480.9380903,5.087719202041626,0.00107710436,3867.6086685440005
1574958480.9849088,5.134537696838379,0.001165770926,4189.503769750399
1574958481.0331533,5.182782173156738,0.001251691021,4501.4280826384
1574958481.073518,5.223146915435791,0.001331369393,4790.6924443472
1574958481.1203861,5.270015001296997,0.001396253705,5026.248450632
1574958481.1672578,5.31688666343689,0.00142763555,5140.1771007199995
1574958481.2141302,5.3637590408325195,0.001379991882,4967.2115284128
1574958481.2610042,5.410633087158203,0.001220462844,4388.057308857599
1574958481.321704,5.471332788467407,0.000986212865,3537.636185096
1574958481.3583856,5.508014440536499,0.000714777038,2552.2155587552
1574958481.405257,5.5548858642578125,0.000434072688,1533.1464865152
1574958481.4522314,5.601860284805298,0.000177992508,603.4730010432
1574958481.4991014,5.648730278015137,1.191441e-05,0.5430740640000025
1574958481.5587726,5.708401441574097,-0.000154003501,-601.8053100304
1574958481.6066947,5.756323575973511,-0.000309659168,-1166.8976435072
1574958481.655031,5.804659843444824,-0.000390341505,-1459.806799752
1574958481.7020328,5.851661682128906,-0.000364055857,-1364.3793832528
1574958481.7489054,5.898534297943115,-0.000148222782,-580.8189877728
1574958481.8011699,5.950798749923706,1.5459023e-05,13.411437099199993
1574958481.8417556,5.991384506225586,0.000149653293,500.59031490719997
1574958481.8886702,6.038299083709717,0.000307368115,1073.158204696
1574958481.935542,6.0851709842681885,0.000464489684,1643.5723487936
1574958481.9824138,6.132042646408081,0.000611986965,2179.0464777360003
1574958482.0398226,6.189451456069946,0.000738793984,2639.4066795136005
1574958482.0868268,6.236455678939819,0.000852291472,3051.4479599488
1574958482.1336966,6.283325433731079,0.000954480842,3422.4362487968
1574958482.1805687,6.33019757270813,0.001050199382,3769.9328364128
1574958482.2274413,6.377070188522339,0.00114043802,4097.535187808
1574958482.2799957,6.429624557495117,0.001226210967,4408.9252945968
1574958482.323808,6.4734368324279785,0.001308475621,4707.5788944784
1574958482.370756,6.520384788513184,0.001376982778,4956.2872772512
1574958482.417628,6.567256927490234,0.001419717446,5111.4312159584
1574958482.472022,6.62165093421936,0.001421277411,5117.0945128943995
1574958482.5209246,6.67055344581604,0.001417381689,5102.9514837456
1574958482.5578356,6.7074644565582275,0.00141617842,5098.583135968
1574958482.6047063,6.754335165023804,0.001414194703,5091.381449771199
1574958482.6515825,6.801211357116699,0.001327783801,4777.6753111503995
1574958482.7140758,6.863704681396484,0.001146472059,4119.441162993599
1574958482.7620058,6.911634683609009,0.000906862319,3249.5619628976
1574958482.8063257,6.955954551696777,0.000639169477,2277.7298693008
1574958482.8532379,7.002866744995117,0.000370126218,1300.9952218272
1574958482.9001124,7.049741268157959,0.000134879723,446.9563463792
1574958482.9469821,7.096611022949219,-1.3145618e-05,-90.4348515872
1574958482.9938526,7.143481492996216,-0.000175047666,-678.2040466464
1574958483.047128,7.196756839752197,-0.00031449832,-1184.465700928
1574958483.0911605,7.240789413452148,-0.000375278294,-1405.1213185376
1574958483.1380293,7.287658214569092,-0.00035472773,-1330.514550992
1574958483.1849055,7.334534406661987,-0.000312368385,-1176.7331849040002
1574958483.2419891,7.391618013381958,-0.000172714703,-669.7344577712
1574958483.2900708,7.439699649810791,-4.47966e-07,-44.3372957664
1574958483.3370721,7.486701011657715,0.000129325315,426.791623576
1574958483.383944,7.5335729122161865,0.000285597518,994.1222293471999
1574958483.430814,7.580442905426025,0.000445120037,1573.2527823248
1574958483.4776855,7.627314329147339,0.000594375655,2115.1103779120003
1574958483.5295937,7.679222583770752,0.000726371072,2594.3065397888004
1574958483.5750844,7.724713325500488,0.000841576606,3012.5487104224003
1574958483.6219585,7.771587371826172,0.000945731066,3390.6710620064
1574958483.6688268,7.818455696105957,0.001044112258,3747.8341414432007
1574958483.7217045,7.871333360671997,0.001135298982,4078.8784242528004
1574958483.7580323,7.907661199569702,0.001223064028,4397.5006472512
1574958483.8049333,7.954562187194824,0.001305871643,4698.125412747199
1574958483.8518054,8.001434326171875,0.001376331784,4953.9239086336
1574958483.914175,8.063803911209106,0.001424202695,5127.714463928
1574958483.9611726,8.110801458358765,0.001426334493,5135.4537433872
1574958484.0080462,8.15767502784729,0.0014236141,5125.57762864
1574958484.0576031,8.207231998443604,0.001421584748,5118.2102691392
1574958484.1046023,8.254231214523315,0.001379677095,4966.068725688
1574958484.151477,8.301105976104736,0.001226903871,4411.4408132784
1574958484.1982162,8.347845077514648,0.000998782925,3583.27053092
1574958484.2429092,8.392538070678711,0.000735139474,2626.1393464096004
1574958484.28991,8.439538955688477,0.000460383482,1628.6651930528
1574958484.3367817,8.48641061782837,0.000205297954,702.6026922016
1574958484.3836544,8.533283233642578,3.2035634e-05,73.5911656736
1574958484.430527,8.580155849456787,-0.000125137158,-497.00893840320003
1574958484.477398,8.627026796340942,-0.000282101333,-1066.8516793232
1574958484.537355,8.686983823776245,-0.000373355113,-1398.1394022352001
1574958484.5725489,8.722177743911743,-0.000373709947,-1399.4275915888002
1574958484.6194155,8.769044399261475,-0.000335634686,-1261.1991640544
1574958484.6798053,8.829434156417847,-0.00028693676,-1084.406213504
1574958484.7246063,8.874235153198242,-0.0001599323,-623.32922192
1574958484.7715094,8.921138286590576,4.898757e-06,-24.926552587199996
1574958484.8182933,8.96792221069336,0.000135899521,450.65862103840004
1574958484.8652525,9.014881372451782,0.000294444151,1026.2390457903998
1574958484.912127,9.061755895614624,0.000451715663,1597.1975429551999
1574958484.9589963,9.108625173568726,0.000600973144,2139.0619019776
1574958485.0058668,9.155495643615723,0.000730413944,2608.9837822976
1574958485.0590336,9.208662509918213,0.000844898634,3024.6090008736005
1574958485.106021,9.25564980506897,0.000948932022,3402.2918126688
1574958485.158726,9.30835485458374,0.001045601442,3753.2404750368
1574958485.2068045,9.356433391571045,0.001137490384,4086.8340900736007
1574958485.2536767,9.403305530548096,0.001224437729,4402.4877313616
1574958485.3005476,9.450176477432251,0.00130685512,4701.695827648
1574958485.3474197,9.497048616409302,0.001377724111,4958.9786125744
1574958485.394167,9.543795824050903,0.001422437839,5121.3073307056
1574958485.4410324,9.59066128730774,0.001425720751,5133.225614430399
1574958485.497917,9.64754581451416,0.001421899535,5119.3530718639995
1574958485.5460544,9.695683240890503,0.001333483495,4798.367480248
1574958485.593971,9.743599891662598,0.001151581295,4137.989733367999
1574958485.6414804,9.791109323501587,0.00091114454,3265.1081380160003
1574958485.6900542,9.839683055877686,0.000642013736,2288.0556671744002
1574958485.7380297,9.887658596038818,0.000371587463,1306.3001256752
1574958485.786002,9.935630798339844,0.000135054812,447.59198948479997
1574958485.8340657,9.983694553375244,-1.4638528e-05,-95.85471205120001
1574958485.881824,10.031452894210815,-0.000178540125,-690.8830698
1574958485.9300418,10.079670667648315,-0.000320148654,-1204.9786734816
1574958485.97804,10.127668857574463,-0.000382130966,-1429.9992589664
1574958486.02604,10.175668954849243,-0.000273457728,-1035.4719357312001
1574958486.0735059,10.223134756088257,-6.1335973e-05,-265.3851163792
1574958486.1221857,10.271814584732056,7.5883232e-05,232.7754854528
1574958486.169519,10.319147825241089,0.000220566057,758.0320133327999
1574958486.2172713,10.366900205612183,0.000381935388,1343.8672325952
1574958486.2662797,10.415908575057983,0.000536162406,1903.7729987424
1574958486.3132377,10.46286654472351,0.000676253811,2412.3608354544003
1574958486.3617518,10.511380672454834,0.000795789994,2846.3249942176003
1574958486.40931,10.558938980102539,0.000905344263,3244.0508123952004
1574958486.457378,10.607006788253784,0.001005711965,3608.425717736
1574958486.5043805,10.654009342193604,0.001100504771,3952.5615206384
1574958486.542123,10.691751956939697,0.001189437695,4275.423607928
1574958486.6020343,10.751663208007812,0.001273946837,4582.2255970448
1574958486.6406708,10.790299654006958,0.001353148371,4869.7588460784
1574958486.6893075,10.83893632888794,0.001412734389,5086.0799258256
1574958486.7361822,10.88581109046936,0.001368941739,4927.095089265599
1574958486.7830558,10.932684659957886,0.001208971255,4346.338244152
1574958486.8299236,10.979552507400513,0.00097614713,3501.0935407520005
1574958486.8767993,11.02642822265625,0.000704503618,2514.9189347872
1574958486.923674,11.073302984237671,0.000425901264,1503.4809488255999
1574958486.9860437,11.135672569274902,0.000172380358,583.0986516832
1574958487.0304441,11.180073022842407,8.312054e-06,-12.534919158399997
1574958487.0799665,11.229595422744751,-0.000157816336,-615.6474262144001
1574958487.1261475,11.275776386260986,-0.000313338824,-1180.2562666495999
1574958487.1731439,11.322772741317749,-0.000392563641,-1467.8740422864
1574958487.220015,11.369643926620483,-0.000382097438,-1429.8775389152001
1574958487.266789,11.416417837142944,-0.000338801183,-1272.6948147632
1574958487.3136299,11.463258743286133,-0.000285716727,-1079.9770057008
1574958487.3606353,11.510264158248901,-0.000228918158,-873.7754808032
1574958487.407506,11.557134866714478,-0.00017292425,-670.4951972
1574958487.4543777,11.60400652885437,-0.000126192346,-500.8396929184
1574958487.501249,11.650877952575684,-8.7193213e-05,-359.25724047520004
1574958487.561642,11.711270809173584,-5.8471225e-05,-254.98493523999997
1574958487.6055326,11.75516152381897,-3.7604943e-05,-179.23198506720001
1574958487.6524525,11.80208134651184,-2.5541522e-05,-135.4369414688
1574958487.6994076,11.849036455154419,-2.1722168e-05,-121.5711587072
1574958487.7461505,11.895779371261597,-2.1743588e-05,-121.6489218752
1574958487.793153,11.942781925201416,-2.2753142e-05,-125.3140067168
1574958487.840025,11.989653825759888,-2.2483058e-05,-124.3334937632
1574958487.8868973,12.036526203155518,-2.2368506e-05,-123.9176241824
1574958487.9337668,12.083395719528198,-2.2993423e-05,-126.18632285919999
1574958487.980639,12.130267858505249,-2.2147782e-05,-123.1163077728
1574958488.0410383,12.190667152404785,-2.2903085e-05,-125.858359784
1574958488.0890288,12.238657712936401,-2.2628345e-05,-124.860943688
1574958488.135999,12.285627841949463,-2.2374094e-05,-123.9379108576
1574958488.1711318,12.320760726928711,-2.3015775e-05,-126.26746956
1574958488.23363,12.383258819580078,-2.2222288e-05,-123.3867943552
1574958488.2805028,12.430131673812866,-2.290681e-05,-125.871883024
1574958488.327373,12.477001905441284,-2.2636726e-05,-124.8913700704
1574958488.3742456,12.523874521255493,-2.2375025e-05,-123.94129076
1574958488.4211168,12.570745706558228,-2.3015775e-05,-126.26746956
1574958488.4679892,12.617618083953857,-2.2158958e-05,-123.15688112320001
1574958488.5192926,12.66892147064209,-2.2913329e-05,-125.8955496016
1574958488.5674853,12.717114210128784,-2.2629276e-05,-124.8643235904
1574958488.6043222,12.753951072692871,-2.2352673e-05,-123.8601440592
1574958488.6511977,12.80082654953003,-2.3012049e-05,-126.2539426896
1574958488.713694,12.863322973251343,-2.2170134e-05,-123.19745447359999
1574958488.760565,12.910193920135498,-2.2850931e-05,-125.6690199024
1574958488.8074389,12.957067728042603,-2.2607855e-05,-124.786556792
1574958488.8543105,13.003939390182495,-2.230797e-05,-123.69785428799999
1574958488.9011817,13.05081057548523,-2.3035333e-05,-126.3384729232
1574958488.9480505,13.097679376602173,-2.2158027e-05,-123.1535012208
1574958488.999716,13.14934492111206,-2.2917055e-05,-125.90907647200001
1574958489.0487201,13.198348999023438,-2.2641383e-05,-124.9082768432
1574958489.0933528,13.242981672286987,-2.2277236e-05,-123.5862775744
1574958489.1402242,13.2898530960083,-2.3026951e-05,-126.3080429104
1574958489.1870942,13.33672308921814,-2.209004e-05,-122.906681216
1574958489.2339664,13.38359522819519,-2.2795983e-05,-125.4695366832
1574958489.2808373,13.430466175079346,-2.260413e-05,-124.773033552
1574958489.3277113,13.47734022140503,-2.2171065e-05,-123.200834376
1574958489.374581,13.524209976196289,-2.2996217e-05,-126.1964661968
1574958489.4214537,13.571082592010498,-2.2122636e-05,-123.0250177344
1574958489.481806,13.631434917449951,-2.2778288e-05,-125.4052967552
1574958489.5300102,13.679639101028442,-2.265349e-05,-124.952230096
1574958489.5733666,13.722995519638062,-2.2222288e-05,-123.3867943552
1574958489.6202388,13.769867658615112,-2.3008324e-05,-126.2404194496
1574958489.6671126,13.816741466522217,-2.2100285e-05,-122.943874664
1574958489.713977,13.863605976104736,-2.275873e-05,-125.334293392
1574958489.760856,13.910484790802002,-2.2647902e-05,-124.9319434208
1574958489.807723,13.957351922988892,-2.2176653e-05,-123.2211210512
