Time, Time Since Begin, V/V Raw Data, Force 
1574948524.7005773,0.05077767372131348,0.000397563,1400.6017152
1574948524.9513438,0.301544189453125,0.000395045616,1391.4626043264
1574948524.9982119,0.34841227531433105,0.000395039096,1391.4389341184
1574948525.0450706,0.39527106285095215,0.000395079143,1391.5843207471999
1574948525.076319,0.42651939392089844,0.000395022333,1391.3780777232
1574948525.1231894,0.4733898639678955,0.000397218391,1399.3506466863998
1574948525.1544383,0.504638671875,0.00046476908,1644.5866680319998
1574948525.2148383,0.5650386810302734,0.000537266023,1907.7795698992002
1574948525.254701,0.6049013137817383,0.000604521483,2151.9437918832004
1574948525.2946908,0.6448912620544434,0.000665533356,2373.4412956224005
1574948525.3346794,0.6848797798156738,0.000719363801,2568.8673431504003
1574948525.3831878,0.7333881855010986,0.000767072663,2742.0695957552
1574948525.4210398,0.771240234375,0.000797569752,2852.7862276608003
1574948525.4611518,0.8113522529602051,0.00080057513,2863.6969519520003
1574948525.5017066,0.8519070148468018,0.000800037757,2861.7460730128
1574948525.5485783,0.8987786769866943,0.000799801201,2860.8872801104003
1574948525.579823,0.9300234317779541,0.000799559988,2860.0115804352004
1574948525.626693,0.976893424987793,0.00079944171,2859.582183984
1574948525.657946,1.0081465244293213,0.00079926569,2858.9431609760004
1574948525.7048173,1.0550177097320557,0.000799195841,2858.6895811664003
1574948525.758681,1.1088814735412598,0.000799139962,2858.4867180448
1574948525.7986758,1.1488761901855469,0.000785742886,2809.8499733344
1574948525.8291702,1.179370641708374,0.000730312429,2608.6152422416003
1574948525.8760512,1.2262516021728516,0.000657082535,2342.7614350640006
1574948525.9242861,1.2744865417480469,0.000582363456,2071.5012906624
1574948525.9525614,1.3027617931365967,0.000512756407,1818.7998599727998
1574948525.9992993,1.3494997024536133,0.000451325439,1595.7808737456
1574948526.0479393,1.3981397151947021,0.000407355838,1436.1536342752
1574948526.094943,1.445143461227417,0.000374528579,1316.9775532016001
1574948526.1261911,1.4763915538787842,0.000364355743,1280.0460893871998
1574948526.172658,1.5228583812713623,0.000364845619,1281.8245352176
1574948526.220665,1.5708653926849365,0.000365061685,1282.6089412239999
1574948526.2605853,1.610785722732544,0.000380055048,1337.0408462592
1574948526.2918344,1.6420347690582275,0.000454921275,1608.83519676
1574948526.3387058,1.688906192779541,0.00052796118,1873.999267872
1574948526.3886006,1.7388010025024414,0.00059665367,2123.3804835680003
1574948526.42959,1.7797904014587402,0.000663327985,2365.434916744
1574948526.465873,1.8160734176635742,0.000726372935,2594.3133032240003
1574948526.5127416,1.8629419803619385,0.00078123156,2793.4720554240002
1574948526.575181,1.9253814220428467,0.000807670876,2889.4573482304004
1574948526.6208565,1.9710569381713867,0.000807262957,2887.9764390928003
1574948526.6665215,2.0167219638824463,0.000806823373,2886.3805733392005
1574948526.7135215,2.0637218952178955,0.000806740485,2886.079656744
1574948526.7603936,2.1105940341949463,0.000806618482,2885.6367370528
1574948526.807184,2.1573843955993652,0.000805848278,2882.8405884512003
1574948526.8541415,2.2043418884277344,0.000775225461,2771.6675136144004
1574948526.9102306,2.2604310512542725,0.000698254444,2492.2319334976
1574948526.951526,2.3017263412475586,0.000612132251,2179.5739240304
1574948526.998481,2.3486814498901367,0.000529842451,1880.8290341104
1574948527.045348,2.3955483436584473,0.000456485897,1614.5154004688
1574948527.0998454,2.4500458240509033,0.00040453393,1425.908979472
1574948527.1399817,2.4901821613311768,0.000368651934,1295.6429811936
1574948527.1868558,2.5370562076568604,0.000360766426,1267.0154329503998
1574948527.2337258,2.583926200866699,0.000361085869,1268.1751388175999
1574948527.2805946,2.6307950019836426,0.000361583196,1269.9806347584
1574948527.343096,2.693296432495117,0.000435727648,1539.1546532992002
1574948527.389966,2.740166425704956,0.000521094538,1849.0706107551998
1574948527.435367,2.78556752204895,0.000600345433,2136.7830599632002
1574948527.4823654,2.8325657844543457,0.000670692883,2392.1724424432005
1574948527.5292377,2.8794381618499756,0.000733130611,2618.8463701744
1574948527.5797107,2.9299111366271973,0.000785925426,2810.5126665504
1574948527.6241744,2.974374771118164,0.00080698356,2886.962116224
1574948527.6711705,3.0213708877563477,0.000806465745,2885.082240648
1574948527.71805,3.0682504177093506,0.000806186348,2884.0679177792003
1574948527.76492,3.1151204109191895,0.0008060541,2883.5878046400003
1574948527.8117878,3.1619882583618164,0.000806003809,2883.4052281936
1574948527.8586652,3.2088656425476074,0.000805811025,2882.7053451600004
1574948527.9186537,3.2688541412353516,0.000805805437,2882.6850584848003
1574948527.9669435,3.3171439170837402,0.000805245712,2880.6530328448002
1574948528.0138168,3.3640172481536865,0.000761087053,2720.3394372112
1574948528.060345,3.4105453491210938,0.000678460114,2420.3705978656
1574948528.0970075,3.4472079277038574,0.000593352132,2111.3945800128004
1574948528.1593819,3.509582281112671,0.000515606254,1829.1459445216
1574948528.206376,3.5565764904022217,0.0004485799,1585.81346896
1574948528.2532449,3.603445291519165,0.00040356908,1422.406188032
1574948528.3001177,3.650318145751953,0.00037266966,1310.2289336640001
1574948528.3469884,3.6971888542175293,0.000365988351,1285.9731094704
1574948528.3938637,3.7440640926361084,0.00036645215,1287.6568853600002
1574948528.4353013,3.785501718521118,0.000366609544,1288.2282885376
1574948528.4822998,3.8325002193450928,0.000366644934,1288.3567683936
1574948528.54022,3.890420436859131,0.000368316658,1294.4257952032
1574948528.5767634,3.9269638061523438,0.000446725637,1579.0817525648
1574948528.6391752,3.989375591278076,0.000531530008,1886.9555410432
1574948528.686133,4.036333322525024,0.000609909184,2171.5033015936
1574948528.7330046,4.083204984664917,0.000680412166,2427.4573274464
1574948528.7798746,4.130074977874756,0.000742753968,2653.7830054272004
1574948528.826745,4.176945447921753,0.000792576,2834.6569104000005
1574948528.873613,4.223813533782959,0.000807793811,2889.9036514544005
1574948528.925899,4.276099443435669,0.000807282515,2888.047442456
1574948528.966357,4.31655740737915,0.000807065517,2887.2596529168004
1574948529.0195045,4.369704961776733,0.000806946307,2886.8268729328
1574948529.0563142,4.406514644622803,0.00080683548,2886.4245265920003
1574948529.1164227,4.466623067855835,0.000806893222,2886.6341531488
1574948529.163296,4.513496398925781,0.000769378617,2750.4411311568
1574948529.210171,4.560371398925781,0.000689462759,2460.3146002736003
1574948529.2570379,4.607238292694092,0.000605640002,2156.0044632608
1574948529.3039072,4.654107570648193,0.000528274104,1875.1353071616002
1574948529.3507783,4.700978755950928,0.000459942967,1627.0659473968
1574948529.397654,4.747854471206665,0.000411557034,1451.4056562336
1574948529.4549687,4.805169105529785,0.000377384946,1327.3473079584
1574948529.5006948,4.850895166397095,0.000365840271,1285.4355198383998
1574948529.5488124,4.899012804031372,0.000397834927,1401.5889189808
1574948529.5926764,4.942876815795898,0.000485262834,1718.9871925536
1574948529.6394591,4.989659547805786,0.000569180585,2023.642195784
1574948529.6864157,5.036616086959839,0.000643354841,2292.9244147664
1574948529.7359872,5.0861876010894775,0.000708552077,2529.6164603408
1574948529.7829914,5.133191823959351,0.000765836798,2737.5829114592
1574948529.8297403,5.179940700531006,0.000801894814,2868.4879327456006
1574948529.8767307,5.226931095123291,0.000804646872,2878.4790041088004
1574948529.9328072,5.283007621765137,0.000804316252,2877.2787212608
1574948529.9821224,5.332322835922241,0.000804211944,2876.9000414976003
1574948530.03046,5.38066029548645,0.000804005191,2876.1494454064
1574948530.0773394,5.427539825439453,0.000803975388,2876.0412485952
1574948530.1240788,5.474279165267944,0.000798330642,2855.5485627168005
1574948530.1710782,5.521278619766235,0.000739257783,2641.0904554032004
1574948530.2179525,5.568152904510498,0.000656773336,2341.6389190144
1574948530.2648232,5.615023612976074,0.000576559454,2050.4304418016
1574948530.3116505,5.661850929260254,0.000502893701,1782.9942921104002
1574948530.3585646,5.708765029907227,0.000440863892,1557.8012735168
1574948530.4147239,5.7649242877960205,0.000398796983,1405.0815670832
1574948530.4625866,5.812787055969238,0.000372680835,1310.269503384
1574948530.5111706,5.861371040344238,0.000368847512,1296.3530075648
1574948530.5580902,5.90829062461853,0.000422459096,1490.9845021184
1574948530.6049616,5.955162048339844,0.000510115176,1809.2111349503998
1574948530.6518328,6.002033233642578,0.000590899028,2102.4888312512003
1574948530.6987054,6.048905849456787,0.000662959181,2364.0960107024002
1574948530.7455802,6.095780611038208,0.000726002268,2592.9676337472
1574948530.7924535,6.142653942108154,0.000779836439,2788.4072081456
1574948530.8391972,6.189397573471069,0.000806163996,2883.9867710784
1574948530.8861916,6.236392021179199,0.000806367956,2884.7272274624
1574948530.9429772,6.293177604675293,0.000806151889,2883.9428178256003
1574948530.9871852,6.337385654449463,0.000805904157,2883.0434515728
1574948531.0340552,6.384255647659302,0.000805915333,2883.0840249232
1574948531.0809298,6.4311301708221436,0.000805724412,2882.3909053248003
1574948531.1276777,6.477878093719482,0.000805700198,2882.3029988192
1574948531.1745422,6.524742603302002,0.000772363506,2761.2774721824003
1574948531.2215455,6.571745872497559,0.000694853254,2479.8842533216
1574948531.268419,6.618619441986084,0.000610889867,2175.0635731568
1574948531.315289,6.665489435195923,0.000530370511,1882.7461031343998
1574948531.362157,6.712357521057129,0.000459984876,1627.2180938304
1574948531.4202204,6.770420789718628,0.000409507193,1443.9639134672
1574948531.4710612,6.821261644363403,0.000373463146,1313.1096052384
1574948531.5191557,6.869356155395508,0.000364200212,1279.4814496448
1574948531.5672593,6.917459726333618,0.000364554115,1280.7662590959999
1574948531.6150641,6.965264558792114,0.000381545164,1342.4505633856
1574948531.663158,7.0133583545684814,0.000468090177,1656.6435785808
1574948531.7111552,7.0613555908203125,0.000553897582,1968.1587816928
1574948531.7591548,7.109355211257935,0.000630568713,2246.5056556752006
1574948531.8064196,7.156620025634766,0.000698342919,2492.5531331376005
1574948531.8553996,7.205600023269653,0.000756934285,2705.263228264
1574948531.9025223,7.25272274017334,0.000800154172,2862.1687060288004
1574948531.951121,7.301321506500244,0.00080841314,2892.152063456
1574948531.9993377,7.349538087844849,0.000808085315,2890.961927576
1574948532.0465412,7.396741628646851,0.000807872973,2890.1910411792
1574948532.0949001,7.445100545883179,0.000807750039,2889.7447415856004
1574948532.1428075,7.4930078983306885,0.000807698816,2889.5587816064003
1574948532.1911547,7.541355133056641,0.000807556324,2889.0414786496003
1574948532.238973,7.589173316955566,0.00080252625,2870.780298
1574948532.2871535,7.637353897094727,0.000743293203,2655.7406441712
1574948532.3351002,7.685300588607788,0.000659901649,2352.9959465296
1574948532.3827496,7.73294997215271,0.000577338971,2053.2604003184
1574948532.4311845,7.7813849449157715,0.000501599163,1778.2946013552
1574948532.468781,7.818981409072876,0.000438561663,1549.4432613552
1574948532.5157533,7.865953683853149,0.000395888463,1394.5224760752
1574948532.562627,7.912827491760254,0.000368016772,1293.3370890688
1574948532.609495,7.959695339202881,0.000364645384,1281.0976020736
1574948532.6563702,8.00657057762146,0.000364842825,1281.81439188
1574948532.718862,8.06906247138977,0.000365026295,1282.480461368
1574948532.7657378,8.115938186645508,0.000387096778,1362.6051428512
1574948532.8126137,8.162814140319824,0.000472666696,1673.2581731584
1574948532.8633356,8.213536024093628,0.000555749983,1974.8837382832
1574948532.910538,8.260738372802734,0.000630764291,2247.2156820464006
1574948532.952448,8.302648305892944,0.000697844662,2490.7442609248005
1574948532.999186,8.34938645362854,0.000755760819,2701.0030772976006
1574948533.0461898,8.396390199661255,0.000798939727,2857.7597849008002
1574948533.093062,8.443262338638306,0.000807890669,2890.2552847376
1574948533.1399305,8.49013090133667,0.000807512552,2888.8825687808003
1574948533.1868002,8.53700065612793,0.000807357952,2888.3213089408
1574948533.233674,8.583874464035034,0.000807183795,2887.6890493680003
1574948533.2805512,8.630751609802246,0.000807107426,2887.4117993504
1574948533.3394105,8.689610958099365,0.000807072036,2887.2833194944
1574948533.3879142,8.738114595413208,0.000801282004,2866.2631873216005
1574948533.4367836,8.786983966827393,0.000742678531,2653.5091389424
1574948533.483784,8.833984375,0.00066009257,2353.6890661280004
1574948533.5306575,8.880857944488525,0.000578512438,2057.5205549152
1574948533.5775268,8.927727222442627,0.00050374493,1786.084593872
1574948533.6244009,8.97460126876831,0.0004395172,1552.9122428800001
1574948533.6711552,9.021355628967285,0.000396652147,1397.2949544688
1574948533.71814,9.068340301513672,0.000368070789,1293.5331923856
1574948533.7650163,9.115216732025146,0.000364942476,1282.1761648704
1574948533.8231544,9.173354864120483,0.000365276821,1283.3899709584
1574948533.8678238,9.218024253845215,0.000411496498,1451.1858863392
1574948533.9155903,9.265790700912476,0.000500982627,1776.0563290607997
1574948533.9551592,9.305359601974487,0.00058202073,2070.2570581920004
1574948534.0021572,9.352357625961304,0.000622449443,2217.0294578672006
1574948534.0490282,9.399228572845459,0.000582445413,2071.7988273552
1574948534.0959044,9.446104764938354,0.000523048453,1856.1641037711997
1574948534.1584,9.50860047340393,0.000478674658,1695.0694784031998
1574948534.2052739,9.555474281311035,0.000541479327,1923.0755487407998
1574948534.252139,9.602339506149292,0.000623448752,2220.6573492608004
1574948534.2995095,9.649709939956665,0.000661783852,2359.8290963008
1574948534.3489943,9.69919466972351,0.000617636368,2199.5560703872
1574948534.3966577,9.7468581199646,0.000552618876,1963.5165674304
1574948534.434499,9.784699440002441,0.000491081737,1740.1121380047998
1574948534.489298,9.839498519897461,0.000477664173,1691.4010136592
1574948534.536301,9.88650131225586,0.000558631495,1985.3447794480003
1574948534.5831523,9.933352708816528,0.000638880767,2276.6817365168
1574948534.630041,9.980241298675537,0.000707538798,2525.9378522592
1574948534.676917,10.027117490768433,0.000696100295,2484.411510968
1574948534.723787,10.073987483978271,0.000632924959,2255.0597711536
1574948534.7806065,10.130806922912598,0.000561101362,1994.3113846048
1574948534.8284965,10.178696870803833,0.000492403284,1744.9098822336002
1574948534.8641922,10.21439266204834,0.000521798618,1851.6267027872
1574948534.9242887,10.274489164352417,0.000607284717,2161.9754365968
1574948534.968267,10.318467378616333,0.000681710429,2432.1705414416
1574948535.0151315,10.365331888198853,0.000744355842,2659.5984487968003
1574948535.0620096,10.41220998764038,0.000790407881,2826.7857711824
1574948535.1088793,10.45907974243164,0.000804003328,2876.1426819712
1574948535.1557462,10.505946636199951,0.000803493895,2874.293236408
1574948535.2026246,10.552824974060059,0.000803273171,2873.4919199984
1574948535.2606666,10.610867023468018,0.000803151168,2873.0490003072
1574948535.305412,10.655612468719482,0.000802992843,2872.4742172272
1574948535.3569593,10.707159757614136,0.000783903524,2803.1723535296005
1574948535.3967476,10.746948003768921,0.000715086237,2553.3380748048003
1574948535.455036,10.805236339569092,0.000634007156,2258.9885791424003
1574948535.502905,10.853105306625366,0.000557153486,1979.9790155744001
1574948535.5497797,10.899980068206787,0.00048685167,1724.7553027679999
1574948535.5966523,10.946852684020996,0.000435020775,1536.58842156
1574948535.643525,10.993725299835205,0.000392007641,1380.4335398864
1574948535.6903923,11.040592670440674,0.000369344838,1298.1584998751998
1574948535.7409906,11.091191053390503,0.000368424691,1294.8179982064
1574948535.7891436,11.139343976974487,0.000368561596,1295.3150181184
1574948535.836143,11.186343431472778,0.000368722714,1295.8999409056
1574948535.883012,11.2332124710083,0.0003687758,1296.09266432
1574948535.934813,11.285013437271118,0.000368861482,1296.4037242528
1574948535.9712696,11.321470022201538,0.000368908048,1296.5727774592
1574948536.0181413,11.36834168434143,0.000368913636,1296.5930641344
1574948536.0650072,11.415207624435425,0.000387986191,1365.8340678063998
1574948536.127376,11.477576494216919,0.000473584048,1676.5885278592
1574948536.1743817,11.524582147598267,0.000557174906,1980.0567787424
1574948536.2219987,11.57219910621643,0.000632685609,2254.1908349136
1574948536.2627432,11.612943649291992,0.000699170865,2495.558908296
1574948536.3076062,11.657806634902954,0.000756866299,2705.0164118896005
1574948536.35461,11.704810380935669,0.000795684755,2845.942934552
1574948536.41393,11.764130353927612,0.000802049413,2869.0491889552
1574948536.4505424,11.800742864608765,0.000801715069,2867.8353864976
1574948536.4974172,11.847617626190186,0.000801499933,2867.0543567632003
1574948536.5442898,11.894490242004395,0.000801408663,2866.7230101552004
1574948536.606783,11.9569833278656,0.000801296905,2866.317283912
1574948536.6536577,12.003858089447021,0.000801246613,2866.1347038352
1574948536.7011309,12.051331281661987,0.000801211223,2866.0062239792
1574948536.7492137,12.099414110183716,0.000801105052,2865.6207807808
1574948536.7858303,12.136030673980713,0.00078244321,2797.870829584
1574948536.832704,12.182904481887817,0.000713421963,2547.2960944752003
1574948536.8951435,12.245343923568726,0.000631916337,2251.3980698448004
1574948536.9358857,12.286086082458496,0.000553684309,1967.3845153936
1574948536.9828863,12.333086729049683,0.00048319716,1711.487969664
1574948537.0297608,12.379961252212524,0.000431263819,1522.9491684976
1574948537.0766294,12.426829814910889,0.000389943831,1372.9410840624
1574948537.123504,12.47370433807373,0.00036961399,1299.135629296
1574948537.182439,12.532639503479004,0.000368996523,1296.8939770992
1574948537.2225852,12.57278561592102,0.000369103625,1297.2828002
1574948537.2694569,12.619657278060913,0.000369280577,1297.9252067408001
1574948537.3163283,12.666528701782227,0.000369375572,1298.2700765888
1574948537.3631995,12.713399887084961,0.000369871035,1300.068805464
1574948537.4231434,12.773343801498413,0.00044439733,1570.629066832
1574948537.4670534,12.817253828048706,0.000532091595,1888.9943264879998
1574948537.5139225,12.864122867584229,0.00061144121,2177.0651687840004
1574948537.5607965,12.910996913909912,0.000681240112,2430.4631026048005
1574948537.6076243,12.95782470703125,0.000743275508,2655.6764042432
1574948537.6620593,13.012259721755981,0.000790320337,2826.4679514448003
1574948537.7025845,13.05278491973877,0.000805323943,2880.9370426672
1574948537.7494633,13.099663734436035,0.000804901123,2879.4020369392
1574948537.7963328,13.146533250808716,0.000804685056,2878.6176273024003
1574948537.8432045,13.193404912948608,0.000804569572,2878.1983741888002
1574948537.8900692,13.240269660949707,0.000804519281,2878.0157977424005
1574948537.951141,13.301341533660889,0.000804355368,2877.4207279872003
1574948537.99808,13.348280429840088,0.000804393552,2877.5593511808
1574948538.0449479,13.395148277282715,0.000804278068,2877.1400980672
1574948538.0918236,13.442023992538452,0.000781436451,2794.2158917104002
1574948538.1419113,13.492111682891846,0.00070880726,2530.5428767040003
1574948538.1898968,13.5400972366333,0.000626305118,2231.0271003872003
1574948538.224657,13.574857473373413,0.000547693111,1945.6340701744
1574948538.2871382,13.637338638305664,0.000477910973,1692.2969963792
1574948538.3340273,13.684227705001831,0.000422068872,1489.5678329088
1574948538.3808966,13.731096982955933,0.000386106782,1359.0110613728
1574948538.4291565,13.779356956481934,0.000367985107,1293.2221324528
1574948538.4704707,13.820671081542969,0.000368534587,1295.2169646447999
1574948538.5173442,13.867544651031494,0.000384695828,1353.8887339712
