Time, Time Since Begin, V/V Raw Data, Force 
1574187948.8342423,0.2759542465209961,1.4657155e-05,17.4589011
1574187948.8742313,0.31594324111938477,1.4645979e-05,17.41844398
1574187948.922323,0.36403489112854004,1.4669262e-05,17.50272844
1574187948.962311,0.4040229320526123,1.4793128e-05,17.951123360000004
1574187949.0022984,0.44401025772094727,1.4974736e-05,18.608544319999993
1574187949.0422046,0.4839165210723877,1.511164e-05,19.1041368
1574187949.087148,0.5288598537445068,1.5127473e-05,19.161452259999997
1574187949.1272259,0.5689377784729004,1.5092082e-05,19.033336839999997
1574187949.1671576,0.6088695526123047,1.4925376e-05,18.429861119999998
1574187949.207122,0.6488339900970459,1.4650635e-05,17.435298700000004
1574187949.2551079,0.6968197822570801,1.4687888e-05,17.57015456
1574187949.2950933,0.7368052005767822,1.4651567e-05,17.43867254
1574187949.335103,0.7768149375915527,1.4702789e-05,17.624096180000002
1574187949.3750741,0.8167860507965088,1.4765188e-05,17.84998056
1574187949.4231915,0.864903450012207,1.4880672e-05,18.268032639999994
1574187949.4631848,0.9048967361450195,1.5072525e-05,18.962540499999996
1574187949.5030546,0.9447665214538574,1.5106983e-05,19.08727846
1574187949.5431654,0.984877347946167,1.5053898e-05,18.895110759999994
1574187949.591152,1.0328638553619385,1.4940277e-05,18.48380274
1574187949.6311016,1.0728135108947754,1.4834106e-05,18.099463720000003
1574187949.6710076,1.1127195358276367,1.4702789e-05,17.624096180000002
1574187949.7111206,1.1528325080871582,1.4653429e-05,17.44541298
1574187949.7589905,1.200702428817749,1.4645047e-05,17.415070139999997
1574187949.798967,1.2406787872314453,1.4816411e-05,18.035407819999996
1574187949.8390863,1.2807981967926025,1.4930964e-05,18.450089679999998
1574187949.888359,1.330070972442627,1.5047379e-05,18.87151198
1574187949.9283514,1.370063304901123,1.510419e-05,19.077167799999998
1574187949.970317,1.4120287895202637,1.5010126e-05,18.73665612
1574187950.0104482,1.452160120010376,1.4971942e-05,18.598430039999997
1574187950.0584314,1.50014328956604,1.482293e-05,18.059006599999996
1574187950.0982988,1.540010690689087,1.4707446e-05,17.64095452
1574187950.1384187,1.5801305770874023,1.4650635e-05,17.435298700000004
1574187950.1784012,1.6201131343841553,1.4643185e-05,17.408329699999996
1574187950.2263901,1.6681020259857178,1.4797784e-05,17.96797808
1574187950.2663803,1.708092212677002,1.4926307e-05,18.43323134
1574187950.306365,1.7480769157409668,1.510419e-05,19.077167799999998
1574187950.3542285,1.7959403991699219,1.4937483e-05,18.473688459999998
1574187950.4022126,1.8439245223999023,1.4681369e-05,17.54655578
1574187950.4502497,1.8919615745544434,1.5106052e-05,19.08390824
1574187950.49832,1.9400320053100586,1.4694408e-05,17.59375696
1574187950.5461822,1.987894058227539,1.4917925e-05,18.402888499999996
1574187950.5941625,2.035874366760254,1.4956109e-05,18.54111458
1574187950.6422012,2.0839130878448486,1.4725141e-05,17.705010419999994
1574187950.6902795,2.131991386413574,2.0962209e-05,40.28319657999999
1574187950.7381299,2.1798417568206787,0.00012641307,422.0153133999999
1574187950.7862446,2.227956533432007,0.000286679715,1002.1805682999999
1574187950.834103,2.275815010070801,0.000447292812,1583.5999794400002
1574187950.882221,2.3239328861236572,0.000594255514,2115.60496068
1574187950.9304845,2.3721964359283447,0.000722969882,2581.55097284
1574187950.9784696,2.4201815128326416,0.000835138373,2987.60091026
1574187951.026375,2.4680869579315186,0.000933846459,3344.92418158
1574187951.074324,2.516035795211792,0.001016221941,3643.12342642
1574187951.1224322,2.5641441345214844,0.001085058786,3892.31280532
1574187951.1704202,2.6121320724487305,0.001145710237,4111.871057939999
1574187951.216558,2.6582698822021484,0.001199942082,4308.19033684
1574187951.2645466,2.706258535385132,0.001248626038,4484.42625756
1574187951.3144975,2.756209373474121,0.001291878521,4641.00024602
1574187951.3624873,2.80419921875,0.001332701184,4788.77828608
1574187951.410341,2.852052927017212,0.001369394362,4921.6075904399995
1574187951.458459,2.9001708030700684,0.001401434653,5037.59344386
1574187951.5064495,2.9481613636016846,0.001432128251,5148.70426862
1574187951.5544372,2.9961490631103516,0.001461066306,5253.46002772
1574187951.6024275,3.0441393852233887,0.001484338194,5337.70426228
1574187951.650414,3.09212589263916,0.001502595842,5403.79694804
1574187951.6984012,3.140113115310669,0.001511884853,5437.42316786
1574187951.746389,3.188100814819336,0.001520365477,5468.12302674
1574187951.794375,3.236086845397949,0.001519081183,5463.47388246
1574187951.842261,3.283972978591919,0.00151752308,5457.833549599999
1574187951.8903515,3.3320634365081787,0.001516892575,5455.5511215
1574187951.9383383,3.3800501823425293,0.001515724696,5451.32339952
1574187951.9862435,3.427955389022827,0.001515200362,5449.4253104399995
1574187952.0343125,3.4760243892669678,0.001514705829,5447.63510098
1574187952.082171,3.5238828659057617,0.001513916068,5444.77616616
1574187952.1302867,3.5719985961914062,0.001513836905,5444.489596099999
1574187952.178273,3.6199848651885986,0.001513022929,5441.543002979999
1574187952.226263,3.6679749488830566,0.001512877643,5441.017067659999
1574187952.274252,3.715963840484619,0.001512538642,5439.789884039999
1574187952.3222358,3.7639477252960205,0.001510983333,5434.15966546
1574187952.3700957,3.811807632446289,0.00138203986,4967.3842932
1574187952.4182193,3.859931230545044,0.001101639122,3952.33362164
1574187952.4662037,3.9079155921936035,0.000732218847,2615.0322261399997
1574187952.514196,3.9559078216552734,0.000339481048,1193.32139376
1574187952.5621774,4.003889322280884,2.3839995e-05,50.70078189999999
1574187952.6100814,4.051793336868286,-0.000183552504,-700.06006448
1574187952.6580675,4.099779367446899,-0.000358439982,-1333.1527348399998
1574187952.70601,4.147722005844116,-0.000457430258,-1691.4975339599998
1574187952.7514157,4.193127632141113,-0.000454469584,-1680.7798940799998
1574187952.799398,4.241109848022461,-0.000408950262,-1515.9999484399998
1574187952.8473916,4.2891035079956055,-0.000339209102,-1263.53694924
1574187952.8952544,4.336966276168823,-0.000258554704,-971.56802848
1574187952.9432628,4.384974718093872,-0.00017454382,-667.4486284
1574187952.9917042,4.433416128158569,-9.0983696e-05,-364.96097952
1574187953.0397801,4.481492042541504,-2.7487054e-05,-135.10313548
1574187953.0877643,4.529476165771484,3.445894e-06,-23.12586372
1574187953.1357493,4.577461242675781,3.3046119e-05,84.02695077999999
1574187953.1836228,4.625334739685059,6.3308515e-05,193.5768243
1574187953.2315967,4.673308610916138,0.000191052444,656.00984728
1574187953.281991,4.723702907562256,0.000354343094,1247.12200028
1574187953.3299737,4.771685600280762,0.000509919599,1810.3089483800002
1574187953.377834,4.8195459842681885,0.000647399575,2307.9864615
1574187953.4259539,4.867665767669678,0.000769040547,2748.32678014
1574187953.4720018,4.913713693618774,0.000875183381,3132.56383922
1574187953.5201292,4.961841106414795,0.000963572413,3452.53213506
1574187953.5681129,5.009824752807617,0.001037209295,3719.0976479
1574187953.615982,5.057693958282471,0.001100885682,3949.6061688400005
1574187953.664094,5.10580587387085,0.00115519017,4146.188415399999
1574187953.7119498,5.153661727905273,0.001207002439,4333.748829179999
1574187953.7600243,5.201736211776733,0.001254210249,4504.64110138
1574187953.8080556,5.249767541885376,0.001297583804,4661.6533704799995
1574187953.8560374,5.297749280929565,0.00133743789,4805.9251618
1574187953.9039075,5.345619440078735,0.00137151219,4929.274127799999
1574187953.9520233,5.39373517036438,0.001400848851,5035.472840619999
1574187954.0012457,5.442957639694214,0.001426442526,5128.12194412
1574187954.0492344,5.490946292877197,0.001449275762,5210.77825844
1574187954.0983186,5.540030479431152,0.001467742957,5277.62950434
1574187954.146229,5.58794093132019,0.001479125582,5318.83460684
1574187954.1942983,5.63601016998291,0.001493931748,5372.43292776
1574187954.2391863,5.680898189544678,0.001498340629,5388.39307698
1574187954.2871356,5.728847503662109,0.001497512683,5385.39591246
1574187954.3351607,5.776872634887695,0.001496432349,5381.48510338
1574187954.383016,5.824728012084961,0.001495990902,5379.88706524
1574187954.4310045,5.872716426849365,0.001495456323,5377.95188926
1574187954.4791281,5.92084002494812,0.00149484165,5375.726772999999
1574187954.5270684,5.968780279159546,0.001494863071,5375.80431702
1574187954.5789688,6.020680665969849,0.0014942009,5373.407258
1574187954.623473,6.065184831619263,0.001494104043,5373.05663566
1574187954.6715837,6.113295555114746,0.001493811607,5371.99801734
1574187954.7194464,6.161158323287964,0.00149341207,5370.5516934
1574187954.767474,6.209185838699341,0.001493444666,5370.669690919999
1574187954.815549,6.257260799407959,0.001492952928,5368.88959936
1574187954.8634326,6.305144548416138,0.001401986927,5039.592675739999
1574187954.911524,6.353235960006714,0.001149947755,4127.210873099999
1574187954.959409,6.401120901107788,0.000799385831,2858.1767082200004
1574187955.0090513,6.45076322555542,0.000413093716,1459.7992519200002
1574187955.0570688,6.498780727386475,6.9786794e-05,217.02819428
1574187955.1051548,6.5468666553497314,-0.000134334899,-521.89233438
1574187955.1541264,6.595838308334351,-0.000323711894,-1207.43705628
1574187955.2021224,6.643834352493286,-0.000439820811,-1627.75133582
1574187955.2501073,6.691819190979004,-0.000454364344,-1680.39892528
1574187955.2980072,6.7397191524505615,-0.000415593386,-1540.0480573199998
1574187955.3459795,6.787691354751587,-0.000350382179,-1303.9834879799998
1574187955.3939373,6.835649251937866,-0.000273311511,-1024.98766982
1574187955.4419758,6.883687734603882,-0.0001896061,-721.974082
1574187955.4899173,6.931629180908203,-0.000107789412,-425.79767144000004
1574187955.5380316,6.979743480682373,-4.0736981e-05,-183.06787122
1574187955.6058824,7.047594308853149,-5.72484e-06,-56.3239208
1574187955.6339073,7.075619220733643,2.3218803e-05,48.452066859999995
1574187955.6819165,7.123628377914429,4.3629669e-05,122.33940178
1574187955.729984,7.171695947647095,4.3973327e-05,123.58344374
1574187955.7778914,7.2196033000946045,4.3510459e-05,121.90786158
1574187955.825959,7.2676708698272705,4.3629669e-05,122.33940178
1574187955.8739514,7.3156633377075195,4.3566339e-05,122.11014718000001
1574187955.9218874,7.3635993003845215,4.3390319e-05,121.47295478000001
1574187955.969921,7.411633014678955,4.3669716e-05,122.48437192
1574187956.017902,7.459613800048828,4.3295324e-05,121.12907288
1574187956.0658967,7.507608652114868,4.3467619e-05,121.75278078000002
1574187956.1137984,7.5555102825164795,6.7629851e-05,209.22006062
1574187956.1618702,7.603582143783569,0.000199723989,687.4008401799999
1574187956.2098591,7.651571035385132,0.000363788567,1281.31461254
1574187956.2578466,7.69955849647522,0.000517447479,1837.5598739800002
1574187956.3057315,7.747443437576294,0.000654472969,2333.5921477800002
1574187956.3536901,7.7954020500183105,0.000771986321,2758.9904820200004
1574187956.401794,7.843505859375,0.000874755904,3131.01637248
1574187956.449801,7.891512870788574,0.000963652506,3452.82207172
1574187956.497785,7.939496994018555,0.001037004404,3718.3559424799996
1574187956.5457737,7.987485647201538,0.001102101989,3954.0092001800003
1574187956.5937636,8.035475492477417,0.001156319864,4150.27790768
1574187956.641616,8.083328008651733,0.001206888817,4333.33751754
1574187956.689735,8.131446838378906,0.001253705472,4502.8138086399995
1574187956.737591,8.17930293083191,0.00129603222,4656.036636399999
1574187956.7855866,8.227298498153687,0.001336107031,4801.10745222
1574187956.8335662,8.275278091430664,0.001370000653,4923.802363859999
1574187956.8816874,8.323399305343628,0.00139960181,5030.958552199999
1574187956.9296315,8.37134337425232,0.001427626237,5132.40697794
1574187956.97753,8.419241905212402,0.001451105811,5217.40303582
1574187957.0255187,8.467230558395386,0.00147028733,5286.8401346
1574187957.0735044,8.51521635055542,0.001486117952,5344.14698624
1574187957.1216228,8.563334703445435,0.001498525962,5389.06398244
1574187957.1696093,8.611321210861206,0.001507723704,5422.35980848
1574187957.2175996,8.659311532974243,0.001506209373,5416.87793026
1574187957.2654908,8.707202672958374,0.001505450346,5414.130252519999
1574187957.3135755,8.755287408828735,0.001504799351,5411.773650619999
1574187957.3615584,8.80327033996582,0.001504083164,5409.181053679999
1574187957.4094486,8.851160526275635,0.001503910869,5408.55734578
1574187957.4575393,8.899251222610474,0.00150324963,5406.163660599999
1574187957.505526,8.947237968444824,0.001503061503,5405.482640859999
1574187957.5534282,8.995140075683594,0.001499469392,5392.47919904
1574187957.6015015,9.043213367462158,0.001352891326,4861.866600119999
1574187957.6493876,9.091099500656128,0.001068777405,3833.3742061000003
1574187957.6973443,9.139056205749512,0.000700509176,2500.2432171200003
1574187957.7453618,9.187073707580566,0.000312151387,1094.3880209400002
1574187957.7934525,9.235164403915405,1.0774471e-05,3.4035850200000013
1574187957.841439,9.283150911331177,-0.000197537243,-750.68481966
1574187957.8894289,9.331140756607056,-0.000365833752,-1359.9181822399999
1574187957.9374177,9.379129648208618,-0.000457167625,-1690.5468025
1574187957.9854035,9.427115440368652,-0.000448177569,-1658.00279978
1574187958.0333922,9.475104093551636,-0.00040002726,-1483.6986812
1574187958.0812519,9.522963762283325,-0.000330198556,-1230.91877272
1574187958.1293619,9.571073770523071,-0.000248401426,-934.8131621200001
1574187958.1773534,9.619065284729004,-0.000164587982,-631.40849484
1574187958.225208,9.666919946670532,-8.4512867e-05,-341.53657854
1574187958.273326,9.715037822723389,-2.5563873e-05,-128.14122026
1574187958.3224854,9.76419734954834,2.103858e-06,-27.98403404
1574187958.3703415,9.812053442001343,2.9798597e-05,72.27092114000001
1574187958.4183564,9.860068321228027,4.3420121e-05,121.58083801999999
1574187958.4664545,9.908166408538818,4.2670406e-05,118.86686972000001
1574187958.5144384,9.95615029335022,4.2633153e-05,118.73201386000002
1574187958.5623205,10.004032373428345,4.2306259e-05,117.54865758
1574187958.6102865,10.051998376846313,4.2608939e-05,118.64435918000001
1574187958.6582794,10.09999132156372,4.2224303e-05,117.25197686000001
1574187958.706283,10.147994995117188,4.2366795e-05,117.7677979
1574187958.7543697,10.196081638336182,4.2422675e-05,117.97008350000002
1574187958.8023624,10.24407434463501,4.2171218e-05,117.05980916000001
1574187958.8503444,10.292056322097778,4.2451546e-05,118.07459652
1574187958.8983312,10.340043067932129,4.2153522e-05,116.99574964000001
1574187958.9463248,10.388036727905273,4.2315573e-05,117.58237426
1574187958.9941812,10.435893058776855,4.2357482e-05,117.73408484000001
1574187959.039768,10.48147988319397,4.2094849e-05,116.78335338000002
1574187959.0876775,10.529389381408691,4.2445026e-05,118.05099412000001
1574187959.1357462,10.577458143234253,4.2160973e-05,117.02272226
1574187959.1836307,10.625342607498169,4.2268075e-05,117.41043150000002
1574187959.2317276,10.673439502716064,0.000103077851,337.54182062
1574187959.279712,10.721423864364624,0.000254707411,886.44082782
1574187959.3276954,10.769407272338867,0.000416879542,1473.50394204
1574187959.375552,10.817263841629028,0.000565932132,2013.0743178400003
1574187959.4235392,10.865251064300537,0.000696370378,2485.26076836
1574187959.4738119,10.915523767471313,0.00081163086,2902.5037131999998
1574187959.5217986,10.963510513305664,0.000911981799,3265.77411238
1574187959.5697877,11.011499643325806,0.000994514674,3564.54311988
1574187959.6176753,11.05938720703125,0.001064095646,3816.42623852
1574187959.6656318,11.107343673706055,0.001124991104,4036.86779648
1574187959.713627,11.155339002609253,0.001178261824,4229.70780288
1574187959.7617383,11.203450202941895,0.001226718538,4405.1211075599995
1574187959.8097265,11.25143837928772,0.001271520741,4567.30508242
1574187959.8577132,11.29942512512207,0.001312543638,4715.80796956
1574187959.9057033,11.347415208816528,0.001349855214,4850.8758746799995
1574187959.9536033,11.395315170288086,0.001381608658,4965.82334196
1574187960.0016763,11.443388223648071,0.001410085708,5068.910262959999
1574187960.0496593,11.491371154785156,0.001439439133,5175.16966146
1574187960.0976481,11.539360046386719,0.001464214176,5264.85531712
1574187960.145525,11.587236881256104,0.001483250409,5333.76648058
1574187960.1936262,11.635338068008423,0.00149994716,5394.2087192
1574187960.241615,11.683326959609985,0.001513280906,5442.4768797199995
1574187960.289603,11.731314897537231,0.001516778022,5455.1364396399995
1574187960.3374717,11.779183626174927,0.001515274867,5449.69501854
1574187960.3854754,11.827187299728394,0.001514596865,5447.2406513
1574187960.433567,11.875278949737549,0.001513998955,5445.0762171
1574187960.4815216,11.92323350906372,0.001513344236,5442.706134319999
1574187960.5294554,11.97116732597351,0.001513172872,5442.085796639999
1574187960.5946822,12.036394119262695,0.001512515359,5439.705599579999
1574187960.6267078,12.068419694900513,0.00151235424,5439.1223488
1574187960.6747453,12.116457223892212,0.001512032934,5437.959221079999
1574187960.722742,12.164453983306885,0.001511617564,5436.455581679999
1574187960.7707417,12.212453603744507,0.001511635259,5436.51963758
1574187960.8187444,12.260456323623657,0.001511109062,5434.61480444
1574187960.8667467,12.30845856666565,0.001511087641,5434.537260419999
1574187960.9146328,12.35634469985962,0.001510914415,5433.910182299999
1574187960.9625962,12.404308080673218,0.001510597765,5432.7639093
1574187961.010585,12.45229697227478,0.001510161906,5431.186099719999
1574187961.0585716,12.500283479690552,0.001390423626,4997.73352612
1574187961.1065588,12.54827070236206,0.001118293963,4012.6241460600004
1574187961.1546738,12.596385717391968,0.000754047185,2694.0508097
1574187961.2005942,12.642306089401245,0.00036181882,1274.1841284000002
1574187961.2478478,12.689559698104858,3.5479665e-05,92.83638730000001
1574187961.2958388,12.737550735473633,-0.000172333792,-659.44832704
1574187961.3438234,12.785535335540771,-0.000352196395,-1310.5509498999998
1574187961.3916793,12.833391189575195,-0.000455833972,-1685.71897864
1574187961.4397187,12.881430625915527,-0.00045700185,-1689.9466969999999
1574187961.4877837,12.929495573043823,-0.000411912799,-1526.7243323799999
1574187961.5357306,12.977442502975464,-0.000342984684,-1277.2045560799997
1574187961.5836623,13.025374174118042,-0.000262034126,-984.16353612
1574187961.6317508,13.073462724685669,-0.000174319372,-666.6361266399999
1574187961.6797328,13.121444702148438,-9.4382092e-05,-377.26317304
1574187961.7277238,13.169435739517212,-2.9587187e-05,-142.70561694
1574187961.7757144,13.217426300048828,6.6217e-07,-33.2029446
1574187961.8236988,13.265410661697388,2.8609298e-05,67.96565876
1574187961.8716877,13.31339955329895,4.9354509e-05,143.06332258
1574187961.9196737,13.361385583877563,4.7598965e-05,136.7082533
1574187961.9676626,13.409374475479126,4.8044138e-05,138.31977956
1574187962.0155222,13.457234144210815,4.7602691e-05,136.72174142
1574187962.0635362,13.505248069763184,4.778523e-05,137.38253260000002
1574187962.1116223,13.55333423614502,4.7718175e-05,137.1397935
1574187962.1596138,13.601325750350952,4.7532842e-05,136.46888804000002
1574187962.2074773,13.649189233779907,4.7795475e-05,137.4196195
1574187962.2555046,13.697216510772705,4.7463924e-05,136.21940487999998
1574187962.3035707,13.745282649993896,4.7635287e-05,136.83973894
1574187962.351432,13.79314398765564,4.7650188e-05,136.89368056
1574187962.39945,13.841161966323853,4.7452748e-05,136.17894776
1574187962.4474573,13.889169216156006,4.7687441e-05,137.02853642
1574187962.4955297,13.937241554260254,4.7459267e-05,136.20254654
1574187962.5433912,13.985103130340576,4.7613867e-05,136.76219853999999
1574187962.59365,14.035362005233765,4.7594309e-05,136.69139858
1574187962.6416388,14.083350658416748,4.7479756e-05,136.27671672
1574187962.68962,14.13133192062378,4.770793e-05,137.1027066
1574187962.7376127,14.179324626922607,4.7442503e-05,136.14186086
