Time, Time Since Begin, V/V Raw Data, Force 
1574186105.2833917,0.24791622161865234,-5.0623901e-05,-218.85852161999998
1574186105.3314962,0.2960207462310791,-5.0583854e-05,-218.71355148
1574186105.3715024,0.3360269069671631,-5.0479546e-05,-218.33595652
1574186105.4113631,0.3758876323699951,-5.0483271e-05,-218.34944102
1574186105.451481,0.41600561141967773,-5.0282106e-05,-217.62122372
1574186105.499464,0.4639885425567627,-4.5146793e-05,-199.03139066
1574186105.5394585,0.5039830207824707,1.2965873e-05,11.336460259999996
1574186105.5794492,0.5439736843109131,0.000127695501,426.65771362
1574186105.6194372,0.5839617252349854,0.00027081091,944.7354942000001
1574186105.6673036,0.6318280696868896,0.000414213166,1463.85166092
1574186105.7072868,0.6718113422393799,0.000548465177,1949.84394074
1574186105.7474027,0.7119271755218506,0.000670053065,2389.9920953
1574186105.7885175,0.7530419826507568,0.000774857588,2769.38446856
1574186105.8364394,0.8009638786315918,0.000862248242,3085.73863604
1574186105.876425,0.840949535369873,0.000940558501,3369.22177362
1574186105.916416,0.8809404373168945,0.001010683365,3623.0737812999996
1574186105.9564054,0.9209299087524414,0.001071462408,3843.0939169599997
1574186106.0044231,0.9689476490020752,0.001106571406,3970.1884897200002
1574186106.0444078,1.00893235206604,0.001106925309,3971.46961858
1574186106.084371,1.0488955974578857,0.001103246585,3958.1526377000005
1574186106.1243749,1.0888993740081787,0.001101200469,3950.74569778
1574186106.172475,1.1369996070861816,0.001099930145,3946.1471248999997
1574186106.2124674,1.1769919395446777,0.001099175774,3943.41630188
1574186106.25233,1.2168545722961426,0.001098577864,3941.2518676799996
1574186106.2923403,1.2568647861480713,0.001098188572,3939.84263064
1574186106.3404307,1.304955244064331,0.001097782515,3938.3727043
1574186106.380418,1.344942569732666,0.00109739136,3936.9567232
1574186106.4204133,1.3849377632141113,0.001096998341,3935.53399442
1574186106.472276,1.436800479888916,0.001096655615,3934.2933263
1574186106.5082846,1.472809076309204,0.001096310094,3933.0425402799997
1574186106.5483694,1.5128939151763916,0.001093220897,3921.8596471400006
1574186106.5883665,1.5528910160064697,0.001005697995,3605.0267419
1574186106.6282337,1.5927581787109375,0.000833541155,2981.8189810999997
1574186106.6763391,1.6408636569976807,0.000610991381,2176.18879922
1574186106.7162313,1.680755853652954,0.00036648009,1291.0579258
1574186106.7562108,1.7207353115081787,0.000136842951,459.77148262
1574186106.8041952,1.7687196731567383,-2.1883287e-05,-114.81749894000001
1574186106.8522663,1.8167908191680908,-0.000149567612,-577.03475544
1574186106.9001746,1.864699125289917,-0.000253614038,-953.68281756
1574186106.9481764,1.912700891494751,-0.000287883915,-1077.7397723
1574186106.9961638,1.9606883525848389,-0.000269915909,-1012.69559058
1574186107.0442526,2.008777141571045,-0.000238927081,-900.51603322
1574186107.0922375,2.0567619800567627,-0.000197111629,-749.1440969800001
1574186107.1401818,2.104706287384033,-0.000135868788,-527.44501256
1574186107.188123,2.1526474952697754,-1.4588237e-05,-88.40941794
1574186107.236213,2.200737476348877,0.000103199854,337.98347148
1574186107.284071,2.2485954761505127,0.000263615511,918.6881498199999
1574186107.332116,2.296640396118164,0.000426524319,1508.41803478
1574186107.3801758,2.344700336456299,0.000577258877,2054.07713474
1574186107.425434,2.389958620071411,0.00070813112,2527.8346544
1574186107.4732883,2.4378128051757812,0.000815504231,2916.52531622
1574186107.521415,2.4859395027160645,0.000905349851,3241.76646062
1574186107.5693157,2.5338401794433594,0.000985764898,3532.86893076
1574186107.6173868,2.581911325454712,0.001057713293,3793.32212066
1574186107.6653728,2.629897356033325,0.001102522947,3955.53306814
1574186107.7133567,2.6778812408447266,0.00110729225,3972.7979450000003
1574186107.761348,2.72587251663208,0.001103389077,3958.6684587400005
1574186107.8092515,2.773776054382324,0.001101487316,3951.78408392
1574186107.8573194,2.8218438625335693,0.001100519672,3948.2812126400004
1574186107.90521,2.869734525680542,0.001099408604,3944.2591464800003
1574186107.953172,2.917696475982666,0.001099161804,3943.3657304800004
1574186108.001157,2.965681552886963,0.00109853968,3941.1136416000004
1574186108.0492184,3.0137429237365723,0.001098123379,3939.6066319799997
1574186108.098474,3.0629985332489014,0.001093967818,3924.5635011599998
1574186108.1463323,3.110856771469116,0.000982776284,3522.0501480800003
1574186108.194343,3.158867597579956,0.000769555569,2750.19115978
1574186108.2423086,3.2068331241607666,0.000501320697,1779.1809231400002
1574186108.2904155,3.2549400329589844,0.000226293691,783.58316142
1574186108.3384144,3.302938938140869,2.4609268e-05,53.485550159999995
1574186108.3863666,3.35089111328125,-0.000102742575,-407.52812150000005
1574186108.4462557,3.410780191421509,-0.000222289935,-840.2895647
1574186108.482374,3.4468984603881836,-0.000282153487,-1056.99562294
1574186108.5302508,3.4947752952575684,-0.000272922218,-1023.5784291599999
1574186108.5783525,3.542876958847046,-0.000244659372,-921.2669266400001
1574186108.6262207,3.590745210647583,-0.000205109827,-778.09757374
1574186108.674329,3.6388535499572754,-0.000162637793,-624.34881066
1574186108.7222323,3.6867568492889404,-9.7773969e-05,-389.54176778000004
1574186108.7703028,3.7348272800445557,4.653819e-06,-18.753175220000003
1574186108.8181696,3.782694101333618,0.000139131211,468.05498381999996
1574186108.8662791,3.830803632736206,0.000302545726,1059.6155281200001
1574186108.9142687,3.878793239593506,0.000463725999,1643.08811638
1574186108.9622517,3.926776170730591,0.000610287301,2173.6400296200004
1574186109.0101185,3.9746429920196533,0.000736222602,2629.52581924
1574186109.0582352,4.022759675979614,0.000839397311,3003.01826582
1574186109.1062207,4.070745229721069,0.000930205919,3331.7454267800003
1574186109.1542087,4.118733167648315,0.001010800712,3623.49857744
1574186109.2041256,4.168650150299072,0.001078079455,3867.0476270999998
1574186109.2523446,4.216869115829468,0.001112875529,3993.00941498
1574186109.300354,4.264878511428833,0.001110444777,3984.21009274
1574186109.348504,4.313028573989868,0.00110719353,3972.4405786
1574186109.3964102,4.360934734344482,0.001105938107,3967.8959473399996
1574186109.4437194,4.408243894577026,0.001104745083,3963.57720046
1574186109.4924808,4.457005262374878,0.001104124822,3961.33185564
1574186109.540168,4.504692554473877,0.001103730872,3959.90575664
1574186109.5876184,4.552142858505249,0.001034880988,3710.66917656
1574186109.636096,4.60062050819397,0.000844175927,3020.3168557400004
1574186109.6841345,4.648658990859985,0.000584646128,2080.81898336
1574186109.7326264,4.697150945663452,0.000302981585,1061.1933377
1574186109.7799668,4.744491338729858,6.2277541e-05,189.84469842
1574186109.8282573,4.792781829833984,-7.0434064e-05,-290.57131168
1574186109.8763654,4.840889930725098,-0.000200426206,-761.14286572
1574186109.924198,4.8887224197387695,-0.000281821936,-1055.79540832
1574186109.9719505,4.936475038528442,-0.000287832692,-1077.55434504
1574186110.0202034,4.98472785949707,-0.00018474739,-704.3855518
1574186110.068277,5.032801389694214,-3.2603741e-05,-153.62554242
1574186110.1166358,5.081160306930542,7.6277182e-05,240.52339884000006
1574186110.1645007,5.129025220870972,0.000232411548,805.72980376
1574186110.2114525,5.175976991653442,0.00039721746,1402.3272052000002
1574186110.2593374,5.223861932754517,0.000550700352,1957.9352742400001
1574186110.307418,5.271942615509033,0.000685932115,2447.4742563
1574186110.3552926,5.319817066192627,0.00079764612,2851.8789544
1574186110.4032795,5.367804050445557,0.000891527161,3191.7283228200004
1574186110.4513953,5.415919780731201,0.00097269658,3485.5616196
1574186110.4993815,5.4639060497283936,0.001045279205,3748.3107221
1574186110.547364,5.51188850402832,0.00109609589,3932.2671218
1574186110.5953574,5.559881925582886,0.001107618213,3973.9779310599997
1574186110.6432571,5.607781648635864,0.001103078946,3957.5457845200003
1574186110.6913297,5.655854225158691,0.001100204885,3947.1416837
1574186110.7392747,5.703799247741699,0.001098803245,3942.0677469
1574186110.7873063,5.751830816268921,0.001006729901,3608.7622416199997
1574186110.8351932,5.799717664718628,0.000804236159,2875.73489558
1574186110.8831608,5.84768533706665,0.00054162927,1925.0979574
1574186110.9311855,5.895709991455078,0.000265394337,925.12749994
1574186110.9792566,5.943781137466431,4.3928623e-05,123.42161526000001
1574186111.0271134,5.991637945175171,-8.3056279e-05,-336.26372998
1574186111.0762146,6.040739059448242,-0.00020783022,-787.9453964
1574186111.124194,6.088718414306641,-0.000278659165,-1044.3461773
1574186111.1720626,6.136587142944336,-0.000276269391,-1035.69519542
1574186111.2200463,6.184570789337158,-0.000249596313,-939.1386530599999
1574186111.2680364,6.232560873031616,-0.000211260282,-800.36222084
1574186111.3160233,6.280547857284546,-9.692274e-05,-386.46031880000004
1574186111.3641331,6.328657627105713,1.09924e-05,4.192487999999997
1574186111.412125,6.376649618148804,0.000151646324,513.35969288
1574186111.459982,6.424506425857544,0.000315825455,1107.6881471000002
1574186111.5051422,6.4696667194366455,0.000475787558,1686.7509599600003
1574186111.5530424,6.517566919326782,0.000622049905,2216.2206561000003
1574186111.6009848,6.56550931930542,0.00074655842,2666.9414804
1574186111.64898,6.613504409790039,0.000848275609,3035.15770458
1574186111.697095,6.661619424819946,0.000938512385,3361.8148337000002
1574186111.74508,6.709604501724243,0.001017609611,3648.14679182
1574186111.7929578,6.757482290267944,0.001083760522,3887.6130896400005
1574186111.8410537,6.805578231811523,0.001115308143,4001.8154776600004
1574186111.8890393,6.8535637855529785,0.001111610793,3988.43107066
1574186111.9369292,6.901453733444214,0.00110914465,3979.5036330000003
1574186111.985023,6.949547529220581,0.001107374206,3973.09462572
1574186112.0328782,6.997402667999268,0.001080382615,3875.3850663000003
1574186112.0809078,7.0454323291778564,0.000922926702,3305.39466124
1574186112.1311283,7.09565281867981,0.000680945814,2429.4238466799998
1574186112.1792119,7.143736362457275,0.000400725752,1415.0272222400001
1574186112.2272024,7.191726922988892,0.000134438276,451.06655911999997
1574186112.275091,7.239615440368652,-2.9787421e-05,-143.43046402
1574186112.32305,7.287574529647827,-0.000156338327,-601.5447437400001
1574186112.3711708,7.335695266723633,-0.000261432491,-981.98561742
1574186112.4190307,7.383555173873901,-0.000290459953,-1087.0650298599999
1574186112.4670143,7.431538820266724,-0.000261905603,-983.6982828600001
1574186112.5151315,7.479655981063843,-0.00010616798,-419.9280876
1574186112.5631163,7.5276408195495605,5.53485e-06,-15.563843000000002
1574186112.6111066,7.575631141662598,0.000142289326,479.48736011999995
1574186112.6590953,7.623619794845581,0.00030582305,1071.4794410000002
1574186112.7070823,7.671606779098511,0.000466469675,1653.0202235000002
1574186112.7549684,7.7194929122924805,0.000613371842,2184.8060680400004
1574186112.8030567,7.767581224441528,0.00073906593,2639.8186666
1574186112.851048,7.815572500228882,0.000841496512,3010.61737344
1574186112.900218,7.8647425174713135,0.000932234339,3339.0883071800004
1574186112.9482038,7.912728309631348,0.001012429595,3629.3951339
1574186112.9960597,7.9605841636657715,0.001080154441,3874.55907642
1574186113.044067,8.008591413497925,0.001115837134,4003.7304250800003
1574186113.0921636,8.056688070297241,0.001113785431,3996.30326022
1574186113.1400728,8.104597330093384,0.001110943966,3986.0171569199997
1574186113.1880105,8.15253496170044,0.001109174453,3979.61151986
1574186113.2360017,8.200526237487793,0.001108546741,3977.33920242
1574186113.2840161,8.24854063987732,0.001058424823,3795.89785926
1574186113.3320203,8.296544790267944,0.000880126841,3150.45916442
1574186113.3799772,8.344501733779907,0.000626660883,2232.91239646
1574186113.428001,8.392525434494019,0.000343686901,1208.54658162
1574186113.475957,8.440481424331665,9.1039576e-05,293.96326511999996
1574186113.5239265,8.48845100402832,-5.4347329e-05,-232.33733098
1574186113.572002,8.536526441574097,-0.000183969736,-701.5704443200001
1574186113.620035,8.584559440612793,-0.000274907798,-1030.76622876
1574186113.6678922,8.632416725158691,-0.000290704891,-1087.9517054199998
1574186113.715876,8.680400609970093,-0.00027214922,-1020.7801764000001
1574186113.763878,8.728402614593506,-0.000241288915,-909.0658723
1574186113.8118522,8.776376724243164,-0.000199019909,-756.0520705800001
1574186113.8599205,8.824445009231567,-0.000156049617,-600.49961354
1574186113.9078274,8.872351884841919,-0.000116186216,-456.19410192000004
1574186113.9558372,8.920361757278442,-6.0036778e-05,-252.93313636
1574186114.003825,8.96834945678711,3.2245182e-05,81.12755884
1574186114.0518126,9.016337156295776,0.000179304741,613.48316242
1574186114.0999012,9.064425706863403,0.000343361869,1207.36996578
1574186114.1478112,9.112335681915283,0.000500543043,1776.3658156600002
1574186114.1957579,9.160282373428345,0.000643777661,2294.87513282
1574186114.2437518,9.208276271820068,0.000763951801,2729.90551962
1574186114.2917604,9.256284952163696,0.000862682238,3087.30970156
1574186114.3397222,9.304246664047241,0.000950586982,3405.52487484
1574186114.3878062,9.352330684661865,0.001028224826,3686.5738701200003
1574186114.4358282,9.400352716445923,0.001089978963,3910.12384606
1574186114.4838164,9.448340892791748,0.001116519794,4006.2016542799997
1574186114.5317984,9.496322870254517,0.001112084836,3990.14710632
1574186114.5797908,9.544315338134766,0.001109729521,3981.62086602
1574186114.6276484,9.592172861099243,0.001108004712,3975.3770574400005
1574186114.6756327,9.640157222747803,0.00110743288,3973.3070256
1574186114.7236743,9.688198804855347,0.001106563956,3970.1615207199998
1574186114.77164,9.736164569854736,0.001106159762,3968.69833844
1574186114.8195992,9.784123659133911,0.001105868258,3967.64309396
1574186114.867583,9.832107543945312,0.001084078103,3888.76273286
1574186114.9155703,9.880094766616821,0.000936185941,3353.39310642
1574186114.9635584,9.928082942962646,0.000698566437,2493.21050194
1574186115.0115461,9.976070642471313,0.000418907031,1480.84345222
1574186115.0595343,10.024058818817139,0.000149084255,504.0850031
1574186115.1075218,10.072046279907227,-2.3363158e-05,-120.17463196
1574186115.1555104,10.12003493309021,-0.000149166211,-575.58168382
1574186115.2035172,10.168041706085205,-0.000257978216,-969.4811419200001
1574186115.251485,10.216009616851807,-0.000291789882,-1091.8793728399999
1574186115.2994745,10.263998985290527,-0.00027178973,-1019.4788226
1574186115.3474605,10.31198501586914,-0.000239674002,-903.2198872399999
1574186115.395468,10.359992504119873,-0.000195657834,-743.8813590799999
1574186115.443437,10.40796160697937,-0.000152125023,-586.29258326
1574186115.491425,10.455949544906616,-0.000110955909,-437.26039058000003
1574186115.5394127,10.503937244415283,-7.681828e-05,-313.68217360000006
1574186115.5874002,10.551924705505371,-5.2330084e-05,-225.03490408
1574186115.6353874,10.59991192817688,-3.627222e-05,-166.9054364
1574186115.683376,10.647900581359863,-3.44906e-05,-160.455972
1574186115.731364,10.69588851928711,-3.4522265e-05,-160.5705993
1574186115.7793524,10.743876934051514,-3.3832155e-05,-158.0724011
1574186115.8273392,10.791863679885864,-3.5075471e-05,-162.57320502000002
1574186115.8753269,10.839851379394531,-3.3706427e-05,-157.61726574
1574186115.923315,10.887839555740356,-3.469456e-05,-161.1943072
1574186115.9713032,10.935827732086182,-3.4445897e-05,-160.29414714
1574186116.0192926,10.983817100524902,-3.3829361e-05,-158.06228682
1574186116.0672784,11.031802892684937,-3.5079196e-05,-162.58668952
1574186116.1152658,11.079790353775024,-3.3661723e-05,-157.45543726
1574186116.1632729,11.127797365188599,-3.4677796e-05,-161.13362152
1574186116.211244,11.175768613815308,-3.446918e-05,-160.3784316
1574186116.2592328,11.223757266998291,-3.3860095e-05,-158.1735439
1574186116.3072193,11.271743774414062,-3.50466e-05,-162.468692
1574186116.355204,11.31972861289978,-3.3639371e-05,-157.37452302
Time, Time Since Begin, V/V Raw Data, Force 
