Time, Time Since Begin, V/V Raw Data, Force 
1574181535.329239,0.26397132873535156,0.000221142545,764.9360129
1574181535.3692794,0.30401182174682617,0.000221162103,765.00681286
1574181535.4093134,0.34404587745666504,0.000221179798,765.0708687599999
1574181535.45717,0.39190244674682617,0.000221164897,765.01692714
1574181535.4971886,0.43192100524902344,0.000221149065,764.9596153
1574181535.5379424,0.4726748466491699,0.000221130438,764.89218556
1574181535.5755582,0.5102906227111816,0.000221113674,764.83149988
1574181535.6234138,0.5581462383270264,0.000221158378,764.99332836
1574181535.663536,0.5982685089111328,0.000221150927,764.9663557399999
1574181535.703395,0.638127326965332,0.000221136026,764.91241412
1574181535.7433834,0.6781158447265625,0.000221181661,765.07761282
1574181535.791389,0.7261214256286621,0.000221162103,765.00681286
1574181535.831499,0.7662315368652344,0.000221198425,765.1382984999999
1574181535.8714387,0.806171178817749,0.000221156515,764.9865843
1574181535.9114711,0.8462035655975342,0.000221096911,764.7708178199999
1574181535.959457,0.8941893577575684,0.000221139751,764.92589862
1574181535.99945,0.9341824054718018,0.00022115279,764.9730998
1574181536.0394413,0.9741737842559814,0.000221122056,764.8618427199999
1574181536.0793073,1.0140397548675537,0.000221127644,764.88207128
1574181536.127286,1.0620183944702148,0.000221132301,764.89892962
1574181536.1672843,1.1020166873931885,0.000221186318,765.09447116
1574181536.2073548,1.1420872211456299,0.000221163034,765.0101830799999
1574181536.2473822,1.182114601135254,0.000221128576,764.88544512
1574181536.2952743,1.2300066947937012,0.000221141614,764.93264268
1574181536.3353653,1.2700977325439453,0.00022112485,764.871957
1574181536.375311,1.3100433349609375,0.000221143477,764.9393867399999
1574181536.4432058,1.3779382705688477,0.000221145339,764.9461271800001
1574181536.4632025,1.397934913635254,0.000221167691,765.02704142
1574181536.5031903,1.437922716140747,0.000221185386,765.0910973199999
1574181536.543231,1.4779634475708008,0.000221151859,764.96972958
1574181536.5832858,1.5180182456970215,0.000221153721,764.97647002
1574181536.6312892,1.5660216808319092,0.000221139751,764.92589862
1574181536.6712775,1.6060099601745605,0.000221176073,765.0573842599999
1574181536.7112699,1.6460022926330566,0.000221158378,764.99332836
1574181536.7512608,1.6859931945800781,0.000221145339,764.9461271800001
1574181536.7991168,1.733849287033081,0.00022115279,764.9730998
1574181536.8471024,1.7818348407745361,0.000221151859,764.96972958
1574181536.895223,1.8299553394317627,0.000221159309,764.9966985799999
1574181536.9432096,1.8779420852661133,0.000221196562,765.13155444
1574181536.9911988,1.9259312152862549,0.000221134163,764.9056700599999
1574181537.0390565,1.9737889766693115,0.000221109018,764.8146451599999
1574181537.087045,2.021777391433716,0.000221192837,765.11806994
1574181537.135165,2.069897413253784,0.000221153721,764.97647002
1574181537.1831489,2.1178812980651855,0.000221135095,764.9090438999999
1574181537.2311373,2.16586971282959,0.000221136026,764.91241412
1574181537.2791245,2.2138569355010986,0.000221111812,764.82475944
1574181537.3271127,2.261845111846924,0.000221156515,764.9865843
1574181537.3751009,2.309833288192749,0.000221168622,765.03041164
1574181537.4230027,2.3577351570129395,0.000221143477,764.9393867399999
1574181537.4709525,2.4056849479675293,0.000221539289,766.37222618
1574181537.51894,2.453672409057617,0.000220969319,764.30893478
1574181537.567057,2.5017893314361572,0.000221158378,764.99332836
1574181537.6150386,2.5497710704803467,0.000221449882,766.04857284
1574181537.6628964,2.5976288318634033,0.00022076536,763.5706031999999
1574181537.7108898,2.6456222534179688,0.00022155419,766.4261678
1574181537.750882,2.6856143474578857,0.000220987014,764.3729906799999
1574181537.798891,2.733623504638672,0.000221148133,764.9562414599999
1574181537.8468795,2.781611919403076,0.000221453607,766.0620573399999
1574181537.8948383,2.829570770263672,0.000220747665,763.5065473
1574181537.942824,2.877556324005127,0.000221513212,766.27782744
1574181537.9908128,2.9255452156066895,0.000221006572,764.44379064
1574181538.0389335,2.973665952682495,0.000221141614,764.93264268
1574181538.0869207,3.021653175354004,0.00022373721,774.3287002
1574181538.1349065,3.069638967514038,0.000256730244,893.76348328
1574181538.1828983,3.11763072013855,0.000299545936,1048.75628832
1574181538.230879,3.165611505508423,0.000340634957,1197.49854434
1574181538.2788725,3.2136049270629883,0.000381385908,1345.01698696
1574181538.3268557,3.2615880966186523,0.000421222299,1489.2247223800002
1574181538.374723,3.309455394744873,0.000458658673,1624.74439626
1574181538.4228363,3.3575687408447266,0.000496657565,1762.3003853
1574181538.4706993,3.4054317474365234,0.000533106737,1894.24638794
1574181538.5186799,3.4534122943878174,0.000569267198,2025.14725676
1574181538.566799,3.5015313625335693,0.000605165027,2155.09739774
1574181538.614784,3.549516439437866,0.000638760626,2276.7134661200002
1574181538.6627736,3.597506046295166,0.000672086142,2397.35183404
1574181538.7107544,3.645486831665039,0.00070337113,2510.6034906
1574181538.7587492,3.693481683731079,0.00073388312,2621.0568944
1574181538.8067372,3.741469621658325,0.000763368793,2727.79503066
1574181538.854725,3.789457321166992,0.000790811144,2827.13634128
1574181538.902714,3.837446451187134,0.000819089822,2929.5051556400003
1574181538.950579,3.8853113651275635,0.000845432281,3024.86485722
1574181538.999333,3.934065341949463,0.000871095806,3117.7668177200003
1574181539.0472343,3.981966733932495,0.00089636445,3209.239309
1574181539.095308,4.030040502548218,0.000918088481,3287.88030122
1574181539.1431713,4.077903747558594,0.000936342403,3353.95949886
1574181539.1912844,4.126016855239868,0.000947518274,3394.41615188
1574181539.23919,4.173922538757324,0.000949317589,3400.92967218
1574181539.2872596,4.221992015838623,0.000948267058,3397.1267499600003
1574181539.335245,4.269977331161499,0.000946464017,3390.59974154
1574181539.383235,4.317967414855957,0.000946218148,3389.70969576
1574181539.431094,4.365826368331909,0.000945080072,3385.58986064
1574181539.4791348,4.413867235183716,0.000937839039,3359.3773211800003
1574181539.5272,4.461932420730591,0.00090893358,3254.7395596
1574181539.5751882,4.509920597076416,0.000861430541,3082.77855842
1574181539.6231751,4.557907581329346,0.000804023817,2874.9662175400003
1574181539.6711638,4.605896234512329,0.000740624033,2645.45899946
1574181539.719025,4.653757333755493,0.000675436109,2409.47871458
1574181539.7671347,4.70186710357666,0.000609443523,2170.58555326
1574181539.8151221,4.749854564666748,0.000543503091,1931.8811894200003
1574181539.8631163,4.797848701477051,0.000481992029,1709.21114498
1574181539.9111006,4.84583306312561,0.000423724763,1498.2836420600001
1574181539.9590838,4.893816232681274,0.000370970927,1307.3147557400002
1574181540.006947,4.94167947769165,0.000339600258,1193.75293396
1574181540.0550659,4.989798307418823,0.000362576917,1276.92843954
1574181540.1029227,5.0376551151275635,0.000405194238,1431.2031415600002
1574181540.1509135,5.085645914077759,0.000446757302,1581.66143324
1574181540.1990275,5.13375997543335,0.000486724079,1726.3411659800001
1574181540.2470124,5.181744813919067,0.000526527874,1870.4309038800002
1574181540.295004,5.229736328125,0.00056368392,2004.9357903999999
1574181540.3442824,5.279014825820923,0.000600496307,2138.1966313400003
1574181540.3922687,5.327001094818115,0.0006350521,2263.288602
1574181540.4401286,5.374861001968384,0.000669280067,2387.1938425400003
1574181540.4881427,5.422875165939331,0.000703319907,2510.41806334
1574181540.536135,5.470867395401001,0.00073369313,2620.3691306
1574181540.5841384,5.518870830535889,0.000764215365,2730.8596213
1574181540.6322083,5.566940784454346,0.00079250522,2833.2688964
1574181540.680196,5.614928483963013,0.000820878893,2935.9815926600004
1574181540.7280576,5.662790060043335,0.000849511474,3039.6315358800002
1574181540.7761672,5.710899591445923,0.000876219012,3136.31282344
1574181540.8240259,5.758758306503296,0.000903234817,3234.11003754
1574181540.8721445,5.80687689781189,0.000926723704,3319.13980848
1574181540.920033,5.85476541519165,0.000945429318,3386.85413116
1574181540.9680798,5.902812242507935,0.000955388881,3422.90774922
1574181541.0161102,5.950842618942261,0.000955441967,3423.09992054
1574181541.0640957,5.998828172683716,0.000955388881,3422.90774922
1574181541.1133683,6.048100709915161,0.000954419374,3419.39813388
1574181541.1612236,6.095956087112427,0.000953807496,3417.1831355199997
1574181541.209345,6.14407753944397,0.000953904353,3417.53375786
1574181541.2579749,6.192707300186157,0.000952700153,3413.1745538600003
1574181541.303699,6.238431453704834,0.000952987932,3414.21631384
1574181541.3515863,6.286318778991699,0.000952312723,3411.77205726
1574181541.3996747,6.334407091140747,0.000941610895,3373.0314399
1574181541.4475312,6.382263660430908,0.000908816233,3254.3147634600004
1574181541.495519,6.430251359939575,0.000858052634,3070.55053508
1574181541.5435615,6.4782938957214355,0.000797674991,2851.98346742
1574181541.591625,6.526357412338257,0.00073260814,2616.4414668000004
1574181541.6396132,6.574345588684082,0.000665483996,2373.45206552
1574181541.6876023,6.622334718704224,0.000598274171,2130.15249902
1574181541.735585,6.6703174114227295,0.000531723723,1889.2398772600002
1574181541.7835732,6.718305587768555,0.00046956446,1664.2233452
1574181541.8315654,6.766297817230225,0.000411243178,1453.10030436
1574181541.8795547,6.814287185668945,0.000358428806,1261.9122777200002
1574181541.9297032,6.86443567276001,0.000313322991,1098.62922742
1574181541.9776735,6.912405967712402,0.00027414225,956.7949449999999
1574181542.0257576,6.960489988327026,0.000244403258,849.13979396
1574181542.0737464,7.008478879928589,0.000221687369,766.9082757799999
1574181542.11989,7.054622411727905,0.000206610188,712.32888056
1574181542.1678796,7.102612018585205,0.000199125148,685.23303576
1574181542.2158659,7.1505982875823975,0.000197002664,677.5496436799999
1574181542.2638533,7.198585748672485,0.000198245049,682.0470773799999
1574181542.311841,7.246573448181152,0.000198397785,682.5999817000001
1574181542.3619554,7.296687841415405,0.00019845739,682.8157517999999
1574181542.4099426,7.344675064086914,0.000199345872,686.0320566400001
1574181542.4578292,7.392561674118042,0.00019880943,684.0901365999999
1574181542.5059059,7.440638303756714,0.000199677423,687.2322712600001
1574181542.5538611,7.488593578338623,0.00019952748,686.6894775999999
1574181542.6017694,7.536501884460449,0.000199467875,686.4737074999999
1574181542.6497808,7.584513187408447,0.000200190581,689.08990322
1574181542.6977873,7.632519721984863,0.000199571252,686.84793224
1574181542.7458577,7.6805901527404785,0.000200199895,689.1236199
1574181542.7938464,7.728578805923462,0.000222537667,769.98635454
1574181542.841833,7.7765655517578125,0.000263846479,919.52425398
1574181542.8898168,7.824549198150635,0.000307243317,1076.62080754
1574181542.9378083,7.872540712356567,0.000348342583,1225.40015046
1574181542.985798,7.920530319213867,0.000389780849,1375.4066733800003
1574181543.031074,7.965806484222412,0.000429140404,1517.88826248
1574181543.0790567,8.013789176940918,0.000468882732,1661.75548984
1574181543.1270487,8.061781167984009,0.00050852634,1805.2653508
1574181543.1750367,8.109769105911255,0.000545844436,1940.35685832
1574181543.2228944,8.157626867294312,0.000583958812,2078.33089944
1574181543.2709322,8.20566463470459,0.000619915314,2208.4934366800003
1574181543.3188827,8.253615140914917,0.000654594973,2334.03380226
1574181543.366987,8.301719427108765,0.000688384287,2456.35111894
1574181543.4149718,8.349704265594482,0.000720255077,2571.72337874
1574181543.4628384,8.397570848464966,0.000751099549,2683.38036738
1574181543.510819,8.44555139541626,0.000780042261,2788.1529848200003
1574181543.559836,8.494568347930908,0.00080825109,2890.2689458
1574181543.6078231,8.542555570602417,0.000837362371,2995.65178302
1574181543.6558125,8.590544939041138,0.000864404254,3093.54339948
1574181543.7038,8.638532400131226,0.000891966745,3193.3196169
1574181543.7516632,8.686395645141602,0.00091732014,3285.0989068
1574181543.7997708,8.734503269195557,0.00093905814,3363.7904668
1574181543.8477588,8.782491207122803,0.000954457559,3419.53636358
1574181543.8957496,8.830482006072998,0.000959316269,3437.12489378
1574181543.9436078,8.878340244293213,0.000958611257,3434.5727503400003
1574181543.9917214,8.926453828811646,0.000957529992,3430.65857104
1574181544.0397136,8.974446058273315,0.000956519507,3427.00061534
1574181544.0899713,9.024703741073608,0.000956585631,3427.23998422
1574181544.1379664,9.072698831558228,0.00095536001,3422.8032362
1574181544.185955,9.120687484741211,0.000955547206,3423.48088572
1574181544.2338042,9.16853666305542,0.000955011696,3421.54233952
1574181544.2819207,9.216653108596802,0.000954336487,3419.09808294
1574181544.3280697,9.262802124023438,0.000954665244,3420.2881832800003
1574181544.3760579,9.310790300369263,0.000953696668,3416.78193816
1574181544.424048,9.35878038406372,0.000948335044,3397.37285928
1574181544.4719079,9.40664029121399,0.000919246115,3292.0709363
1574181544.520023,9.454755544662476,0.000872110948,3121.44163176
1574181544.5679073,9.502639770507812,0.000813248567,2908.3598125400003
1574181544.6169596,9.551692008972168,0.000747421756,2670.06675672
1574181544.6649034,9.59963583946228,0.00068004895,2426.177199
1574181544.7128112,9.647543668746948,0.000611435622,2177.7969516400003
1574181544.7609189,9.695651292800903,0.000543672591,1932.49477942
1574181544.8089104,9.743642807006836,0.0004801061,1702.384082
1574181544.8568985,9.791630983352661,0.000419072807,1481.44356134
1574181544.904886,9.839618444442749,0.000364840962,1285.1242824400001
1574181544.952876,9.887608528137207,0.000316460617,1109.98743354
1574181545.0008616,9.935594081878662,0.000275431201,961.46094762
1574181545.0488508,9.983583211898804,0.000243744813,846.75622306
1574181545.096837,10.031569480895996,0.000218267553,754.52854186
1574181545.1448257,10.07955813407898,0.000202460214,697.30597468
1574181545.1926816,10.127413988113403,0.000192875974,662.6110258799999
1574181545.2407973,10.175529718399048,0.00018896535,648.4545669999999
1574181545.2887847,10.223517179489136,0.000189371407,649.92449334
1574181545.3367805,10.271512985229492,0.00018889457,648.1983434
1574181545.3847668,10.319499254226685,0.000189903192,651.8495550399999
1574181545.4327488,10.367481231689453,0.000190100633,652.56429146
1574181545.480638,10.415370464324951,0.000190009363,652.23389406
1574181545.526845,10.461577415466309,0.000190942548,655.6120237599999
1574181545.5749133,10.509645700454712,0.000190327875,653.3869075
1574181545.622799,10.557531356811523,0.000191069208,656.0705329599999
1574181545.670886,10.605618476867676,0.000191068277,656.06716274
1574181545.7188792,10.653611660003662,0.000190847553,655.26814186
1574181545.7668688,10.701601266860962,0.000191262923,656.77178126
1574181545.81485,10.749582529067993,0.000191396102,657.25388924
1574181545.8628414,10.797573804855347,0.000191508792,657.6618270399999
1574181545.9130294,10.847761869430542,0.000191566534,657.87085308
1574181545.9610984,10.895830869674683,0.000191658735,658.2046207
1574181546.0090857,10.943818092346191,0.000191733241,658.4743324199999
1574181546.0570753,10.991807699203491,0.000191792846,658.69010252
1574181546.1050572,11.03978967666626,0.000191910192,659.11489504
1574181546.1529274,11.08765983581543,0.000191967003,659.3205508599999
1574181546.200995,11.135727405548096,0.000191986561,659.39135082
1574181546.2488945,11.183626890182495,0.000192053616,659.63408992
1574181546.296884,11.231616497039795,0.000192173757,660.06900034
1574181546.3449209,11.279653310775757,0.000192184001,660.1060836199999
1574181546.3929875,11.327719926834106,0.000192292035,660.4971667
1574181546.4409764,11.375708818435669,0.000191983767,659.38123654
1574181546.5128279,11.44756031036377,0.000192702748,661.98394776
1574181546.5568159,11.491548299789429,0.000192024745,659.5295769
1574181546.5848947,11.519627094268799,0.000192599371,661.60972302
1574181546.632813,11.567545413970947,0.000192483887,661.19167094
1574181546.6809142,11.615646600723267,0.000192165375,660.0386575
1574181546.7288003,11.663532733917236,0.000192890875,662.6649675
1574181546.7768912,11.711623668670654,0.000192201696,660.17013952
1574181546.8248792,11.7596116065979,0.000192770734,662.23005708
1574181546.872868,11.807600498199463,0.000192666426,661.85246212
1574181546.920753,11.855485439300537,0.000192322768,660.6084201599999
1574181546.9687412,11.903473615646362,0.00019307714,663.3392468
1574181547.0168335,11.951565980911255,0.000192239881,660.30836922
1574181547.064813,11.999545335769653,0.000192966312,662.93804944
1574181547.112704,12.047436475753784,0.000192807056,662.36154272
1574181547.1606686,12.095401048660278,0.000192381442,660.8208200400001
1574181547.2086785,12.143410921096802,0.000193324871,664.2360330199999
1574181547.2567692,12.19150161743164,0.000192348845,660.7028188999999
1574181547.3046324,12.239364862442017,0.000193135813,663.55164306
1574181547.3527465,12.287478923797607,0.000192910433,662.7357674599999
1574181547.4007318,12.335464239120483,0.00019250717,661.2759553999999
1574181547.448593,12.383325338363647,0.000193448737,664.68442794
1574181547.4965744,12.431306838989258,0.000192495994,661.23549828
1574181547.5446138,12.47934627532959,0.000193218701,663.85169762
1574181547.5925598,12.527292251586914,0.000183967873,630.36370026
1574181547.640672,12.575404405593872,0.000142180361,479.09290681999994
1574181547.6885731,12.623305559158325,0.000101594254,332.17119948
1574181547.7366488,12.67138123512268,6.7424029e-05,208.47498498000002
1574181547.7845886,12.719321012496948,4.1780993e-05,115.64719466
1574181547.8326242,12.767356634140015,2.513174e-05,55.3768988
1574181547.8804789,12.815211296081543,1.0229647e-05,1.431322139999999
1574181547.928598,12.863330364227295,3.968365e-06,-21.234518700000002
1574181547.9765859,12.911318302154541,2.251007e-06,-27.45135466
1574181548.0245743,12.959306716918945,4.759058e-06,-18.372210040000002
1574181548.0725636,13.007296085357666,5.747192e-06,-14.795164960000001
1574181548.120554,13.055286407470703,6.571412e-06,-11.81148856
1574181548.168538,13.103270530700684,7.170253e-06,-9.643684140000001
1574181548.2165248,13.151257276535034,7.705763e-06,-7.70513794
1574181548.2644134,13.199145793914795,8.146279e-06,-6.110470020000005
1574181548.312501,13.247233390808105,8.475035e-06,-4.920373300000001
1574181548.360486,13.295218467712402,8.733943e-06,-3.9831263399999983
1574181548.4084766,13.343209028244019,9.047799e-06,-2.846967620000001
1574181548.4563391,13.391071557998657,9.265728e-06,-2.058064640000005
1574181548.5044549,13.439187288284302,9.44268e-06,-1.4174983999999995
1574181548.552335,13.487067461013794,9.638257e-06,-0.7095096600000019
1574181548.600392,13.53512454032898,9.791926e-06,-0.15322788000000287
1574181548.648417,13.583149433135986,1.0008924e-05,0.6323048799999995
1574181548.6962733,13.631005764007568,1.0051765e-05,0.787389300000001
1574181548.744319,13.679051399230957,1.0204501e-05,1.340293619999997
1574181548.7923787,13.727111101150513,1.028087e-05,1.6167493999999962
1574181548.8403635,13.77509593963623,1.0433607e-05,2.1696573400000005
1574181548.8883548,13.823087215423584,1.1028722e-05,4.323973639999998
1574181548.9363427,13.87107515335083,1.0105781e-05,0.9829272200000005
1574181548.984331,13.919063329696655,1.0952353e-05,4.047517859999999
1574181549.032318,13.967050552368164,1.0829419e-05,3.6024967800000027
1574181549.0803053,14.015037775039673,1.0433607e-05,2.1696573400000005
1574181549.1282933,14.063025712966919,1.1394732e-05,5.648929840000001
1574181549.1780708,14.112803220748901,1.0516495e-05,2.4697119
1574181549.22383,14.158562421798706,1.1261553e-05,5.166821859999999
1574181549.2717092,14.206441640853882,2.5665388e-05,57.30870456
1574181549.3205545,14.255286931991577,5.8670528e-05,176.78731136
1574181549.368501,14.30323338508606,9.2648901e-05,299.78902161999997
