Time, Time Since Begin, V/V Raw Data, Force 
1574190339.0630352,0.27991676330566406,0.000257174484,895.37163208
1574190339.075032,0.2919135093688965,0.000257291831,895.7964282199998
1574190339.115064,0.33194541931152344,0.00025732629,895.9211697999999
1574190339.1551445,0.3720259666442871,0.000257384032,896.13019584
1574190339.1951363,0.412017822265625,0.000257316045,895.8840829
1574190339.2431216,0.460003137588501,0.000257267617,895.70877354
1574190339.2831101,0.49999165534973145,0.000257183798,895.4053487599999
1574190339.323057,0.5399384498596191,0.000257148407,895.2772333400001
1574190339.363093,0.5799744129180908,0.00025710091,895.1052942
1574190339.4109476,0.6278290748596191,0.000257133506,895.2232917199999
1574190339.450937,0.667818546295166,0.000257184729,895.40871898
1574190339.4909265,0.7078080177307129,0.000257231295,895.5772878999999
1574190339.5309148,0.7477962970733643,0.00025770627,897.2966974000001
1574190339.578917,0.7957985401153564,0.000257954001,898.19348362
1574190339.6190102,0.8358917236328125,0.000257906504,898.02154448
1574190339.658904,0.8757855892181396,0.000257743523,897.4315532600001
1574190339.6990044,0.9158859252929688,0.000257255509,895.6649425799999
1574190339.7469845,0.9638659954071045,0.000256853178,894.20850436
1574190339.7869747,1.0038561820983887,0.000256538391,893.06897542
1574190339.8269746,1.043856143951416,0.000256563537,893.1600039399999
1574190339.8668869,1.083768367767334,0.000256751664,893.8410236799999
1574190339.9148223,1.1317038536071777,0.000257196836,895.4525463199999
1574190339.954809,1.1716904640197754,0.000257667154,897.1550974799999
1574190339.994829,1.2117104530334473,0.000257926993,898.09571466
1574190340.0347881,1.2516696453094482,0.000257887878,897.95411836
1574190340.0827775,1.299659013748169,0.000257756561,897.4787508200001
1574190340.1228266,1.3397080898284912,0.000257270411,895.7188878200001
1574190340.1627553,1.3796367645263672,0.000257124193,895.1895786599999
1574190340.2028782,1.419759750366211,0.0002621077,913.229874
1574190340.2508683,1.467749834060669,0.000285224058,996.9110899599999
1574190340.2908556,1.507737159729004,0.000309832394,1085.9932662800002
1574190340.3307157,1.5475971698760986,0.000333918259,1173.18409758
1574190340.3707047,1.5875861644744873,0.000357885845,1259.9467589
1574190340.4188209,1.63570237159729,0.000381054357,1343.8167723400002
1574190340.458706,1.6755874156951904,0.000403722748,1425.87634776
1574190340.4986808,1.715562343597412,0.000425873324,1506.0614328800002
1574190340.5467758,1.7636573314666748,0.000450876541,1596.5730784200002
1574190340.5946503,1.8115317821502686,0.000475933775,1687.2802655
1574190340.6427615,1.8596429824829102,0.000499712303,1773.3585368600002
1574190340.6906724,1.9075539112091064,0.000522402115,1855.4956563
1574190340.7386088,1.9554903507232666,0.000544890761,1936.9045548200002
1574190340.786599,2.0034804344177246,0.00056634564,2014.5712168000005
1574190340.8345869,2.0514683723449707,0.00058932323,2097.7500926000002
1574190340.8827126,2.0995941162109375,0.000608778559,2168.17838358
1574190340.9305935,2.147475004196167,0.000628245994,2238.65049828
1574190340.9786832,2.1955647468566895,0.000648296438,2311.2331055600002
1574190341.0265677,2.2434492111206055,0.000665983185,2375.2591297
1574190341.0746572,2.291538715362549,0.000686112791,2448.12830342
1574190341.122644,2.3395254611968994,0.000703255646,2510.18543852
1574190341.1705039,2.387385368347168,0.000720541924,2572.76176488
1574190341.2185183,2.4353997707366943,0.000737574883,2634.42107646
1574190341.266605,2.4834864139556885,0.00075213518,2687.1293516
1574190341.3145518,2.531433343887329,0.000768452883,2746.19943646
1574190341.3625777,2.5794591903686523,0.000782077201,2795.5194676200003
1574190341.4104383,2.627319812774658,0.000795712695,2844.8799559
1574190341.458435,2.675316572189331,0.000810366124,2897.92536888
1574190341.5064154,2.723296880722046,0.000821885653,2939.6260638599997
1574190341.5544233,2.7713048458099365,0.000836165622,2991.31955164
1574190341.6025233,2.8194048404693604,0.000847330317,3031.73574754
1574190341.6503792,2.867260694503784,0.000859461725,3075.6514445
1574190341.6983798,2.9152612686157227,0.000872224569,3121.8529397800003
1574190341.746406,2.963287591934204,0.000882075168,3157.5121081600005
1574190341.7943637,3.0112452507019043,0.000894698314,3203.20789668
1574190341.8424623,3.0593438148498535,0.00090441294,3238.3748428
1574190341.8903654,3.1072468757629395,0.000914723612,3275.6994754400002
1574190341.9383059,3.1551873683929443,0.000925682485,3315.3705956999997
1574190341.9864247,3.203306198120117,0.000933962874,3345.34560388
1574190342.0342803,3.251161813735962,0.000944618136,3383.9176523200003
1574190342.082301,3.299182415008545,0.000952327624,3411.82599888
1574190342.130268,3.347149610519409,0.0009607682,3442.380884
1574190342.1782448,3.3951263427734375,0.000970457681,3477.45680522
1574190342.2262642,3.443145751953125,0.000976974145,3501.0464049000007
1574190342.2742493,3.491130828857422,0.000986429863,3535.2761040600003
1574190342.3222098,3.5390913486480713,0.000993943773,3562.4764582599996
1574190342.370313,3.5871944427490234,0.00100128632,3589.0564784
1574190342.4181845,3.635066032409668,0.001008688472,3615.85226864
1574190342.4661708,3.6830523014068604,0.001014267094,3636.04688028
1574190342.5142858,3.7311673164367676,0.001023050398,3667.8424407600005
1574190342.5622778,3.7791593074798584,0.001029022038,3689.45977756
1574190342.6101384,3.8270199298858643,0.001034948975,3710.9152894999997
1574190342.6581235,3.875005006790161,0.00104269851,3738.9686062
1574190342.7061129,3.922994375228882,0.001048165374,3758.75865388
1574190342.7540987,3.970980167388916,0.001055226661,3784.32051282
1574190342.8020859,4.018967390060425,0.001060701907,3804.1409033399996
1574190342.8500729,4.0669543743133545,0.001066175289,3823.9545461800003
1574190342.8981013,4.114982843399048,0.001072797924,3847.92848488
1574190342.9480999,4.164981365203857,0.001076260582,3860.46330684
1574190342.9953244,4.21220588684082,0.001081679948,3880.0814117600003
1574190343.043314,4.26019549369812,0.00108583644,3895.1279127999996
1574190343.0912979,4.3081793785095215,0.001089853235,3909.6687107
1574190343.1391556,4.356037139892578,0.001094982959,3928.2383115800003
1574190343.18719,4.404071569442749,0.001096665859,3934.33040958
1574190343.2352626,4.452144145965576,0.001099248417,3943.67926954
1574190343.2832458,4.50012731552124,0.001101836562,3953.0483544400004
1574190343.3311946,4.548076152801514,0.001103678718,3959.71695916
1574190343.3792274,4.596108913421631,0.001108462922,3977.03577764
1574190343.4270985,4.643980026245117,0.001109612174,3981.1960698800003
1574190343.47507,4.691951513290405,0.001114364713,3998.40026106
1574190343.5230544,4.739935874938965,0.001116283238,4005.34532156
1574190343.5710435,4.7879250049591064,0.001118688844,4014.05361528
1574190343.6201775,4.837059020996094,0.001120017841,4018.86458442
1574190343.6681678,4.885049343109131,0.001117973588,4011.4643885600003
1574190343.7161262,4.933007717132568,0.001118283719,4012.58706278
1574190343.7641072,4.9809887409210205,0.001117151231,4008.4874562200002
1574190343.8120987,5.028980255126953,0.001116347499,4005.57794638
1574190343.8600817,5.076963186264038,0.001116809435,4007.2501547
1574190343.908118,5.124999523162842,0.001115130261,4001.1715448200002
1574190343.9561193,5.173000812530518,0.001115949824,4004.13836288
1574190344.0041203,5.221001863479614,0.001115079038,4000.98611756
1574190344.0521188,5.269000291824341,0.001114505343,3998.90934166
1574190344.1000266,5.316908121109009,0.001115206629,4001.44799698
1574190344.1480432,5.364924669265747,0.001113645732,3995.79754984
1574190344.1961207,5.413002252578735,0.001114539802,3999.0340832399997
1574190344.2441194,5.461000919342041,0.001113835722,3996.48531364
1574190344.291974,5.508855581283569,0.001113380305,3994.8367041
1574190344.3400936,5.5569751262664795,0.001114184037,3997.74621394
1574190344.3880832,5.604964733123779,0.001112715341,3992.42953442
1574190344.4360714,5.6529529094696045,0.001113725826,3996.0874901200004
1574190344.483925,5.700806617736816,0.001113016158,3993.5184919599997
1574190344.551906,5.768787622451782,0.001112608239,3992.0418251800006
1574190344.5799131,5.796794652938843,0.001113452949,3995.0996753799996
1574190344.627933,5.8448145389556885,0.001112025231,3989.93133622
1574190344.6760168,5.892898321151733,0.001113068312,3993.7072894400003
1574190344.7239985,5.940880060195923,0.001112450846,3991.47206252
1574190344.7719803,5.988861799240112,0.001112030819,3989.95156478
1574190344.8171284,6.03400993347168,0.001112882048,3993.03301376
1574190344.8649998,6.081881284713745,0.001111504622,3988.0467316400004
1574190344.9131067,6.129988193511963,0.001112582162,3991.94742644
1574190344.9609663,6.177847862243652,0.001112004742,3989.8571660400003
1574190345.0089943,6.2258758544921875,0.001111489721,3987.99279002
1574190345.0569685,6.273849964141846,0.001092009246,3917.4734705200003
1574190345.1050618,6.321943283081055,0.001041563228,3734.8588853600004
1574190345.1530461,6.369927644729614,0.000972495414,3484.83339868
1574190345.2009003,6.417781829833984,0.000890665688,3188.60979056
1574190345.249019,6.465900421142578,0.000801242888,2864.89925456
1574190345.2970102,6.513891696929932,0.000709476881,2532.70630922
1574190345.344869,6.561750411987305,0.000616359524,2195.62147688
1574190345.3928518,6.60973334312439,0.000530323014,1884.16931068
1574190345.4409728,6.657854318618774,0.000448849052,1589.23356824
1574190345.4888558,6.705737352371216,0.000375117175,1322.3241735000001
1574190345.536816,6.753697395324707,0.000310655683,1088.97357246
1574190345.5871408,6.804022312164307,0.000253989361,883.84148682
1574190345.6351285,6.852010011672974,0.000210029073,724.70524426
1574190345.6831174,6.899998903274536,0.000175052322,598.08940564
1574190345.7309742,6.947855710983276,0.000150138512,507.90141343999994
1574190345.7789626,6.995844125747681,0.000135783106,455.93484372
1574190345.826967,7.043848514556885,0.000126917847,423.84260614
1574190345.8749826,7.091864109039307,0.000127579086,426.2362913199999
1574190345.9229236,7.13980507850647,0.00012742728,425.6867535999999
1574190345.9710438,7.187925338745117,0.000127232634,424.98213508
1574190346.0188982,7.235779762268066,0.000128247775,428.6569455
1574190346.066888,7.283769607543945,0.000127186067,424.81356253999996
1574190346.1150098,7.331891298294067,0.000146063976,493.1515931199999
1574190346.162866,7.379747629165649,0.000174589455,596.4138270999999
1574190346.210853,7.427734613418579,0.000203943811,702.67659582
1574190346.258843,7.475724458694458,0.000233824365,810.8442013
1574190346.306954,7.5238354206085205,0.000260788016,908.4526179200001
1574190346.354944,7.5718255043029785,0.000289514661,1012.4430728200001
1574190346.402931,7.619812488555908,0.000317064114,1112.17209268
1574190346.4509213,7.667802810668945,0.000344163738,1210.2727315600002
1574190346.4987779,7.7156593799591064,0.000372026116,1311.13453992
1574190346.5468173,7.7636988162994385,0.000396823511,1400.90110982
1574190346.5948875,7.811769008636475,0.000423699617,1498.1926135400001
1574190346.6428745,7.859755992889404,0.000448351726,1587.4332481200001
1574190346.69073,7.907611608505249,0.000472295098,1674.1082547600001
1574190346.7388496,7.955731153488159,0.000497085042,1763.8478520400001
1574190346.7868378,8.003719329833984,0.000518996269,1843.16649378
1574190346.8348238,8.051705360412598,0.000542194583,1927.14439046
1574190346.8826807,8.099562168121338,0.000563058071,2002.67021702
1574190346.9308016,8.147683143615723,0.000583350658,2076.12938196
1574190346.9786904,8.195571899414062,0.000604748726,2153.59038812
1574190347.0267334,8.243614912033081,0.00062359497,2221.8137914000004
1574190347.0747638,8.291645288467407,0.000644030981,2295.79215122
1574190347.122665,8.33954644203186,0.000661794096,2360.09462752
1574190347.1707335,8.387614965438843,0.000679501332,2424.19482184
1574190347.2187276,8.435609102249146,0.000696809031,2486.8486922200004
1574190347.266583,8.483464479446411,0.000712876208,2545.0118729600003
1574190347.3145719,8.531453371047974,0.000730209053,2607.7567718600003
1574190347.3626933,8.579574823379517,0.000745838508,2664.33539896
1574190347.4106803,8.627561807632446,0.000760583207,2717.71120934
1574190347.4585354,8.675416946411133,0.000776791014,2776.3834706800003
1574190347.5065207,8.723402261734009,0.000790444203,2825.80801486
1574190347.554638,8.771519422531128,0.000805095769,2878.84668378
1574190347.602509,8.819390535354614,0.000818823464,2928.54093968
1574190347.6504917,8.86737322807312,0.000832231715,2977.0788082999998
1574190347.6985614,8.915442943572998,0.000846041366,3027.06974492
1574190347.746595,8.963476419448853,0.000857878476,3069.92008312
1574190347.7945836,9.011465072631836,0.00087090116,3117.0621992
1574190347.842564,9.05944561958313,0.000882356428,3158.53026936
1574190347.8905568,9.107438325881958,0.000893421471,3198.58572502
1574190347.938414,9.155295610427856,0.000905146822,3241.0314956400002
1574190347.986405,9.203286409378052,0.000914504752,3274.90720224
1574190348.0345206,9.251402139663696,0.00092563685,3315.205397
1574190348.0832417,9.30012321472168,0.000935174525,3349.7317805
1574190348.1312416,9.34812307357788,0.000944244675,3382.5657235000003
1574190348.179232,9.396113395690918,0.000954495743,3419.67458966
1574190348.2272253,9.444106817245483,0.000962364487,3448.1594429399997
1574190348.2753327,9.49221420288086,0.000971419737,3480.9394479400003
1574190348.3232183,9.540099859237671,0.000979088247,3508.69945414
1574190348.3713078,9.588189363479614,0.000986284576,3534.7501651199996
1574190348.4192948,9.636176347732544,0.000995508395,3568.1403898999997
1574190348.4671597,9.684041261672974,0.001001517288,3589.8925825600004
1574190348.5151684,9.732049942016602,0.001009984873,3620.54524026
1574190348.5631688,9.780050277709961,0.001016738825,3644.9945465000005
1574190348.611116,9.82799744606018,0.001023934223,3671.04188726
1574190348.659233,9.8761146068573,0.001032190397,3700.92923714
1574190348.70709,9.92397141456604,0.001037905924,3721.61944488
1574190348.78707,10.00395154953003,0.001045201905,3748.0308961
1574190348.803066,10.019947528839111,0.001051703468,3771.56655416
1574190348.8511264,10.068007946014404,0.001056951471,3790.56432502
1574190348.8990407,10.115922212600708,0.001063863747,3815.58676414
1574190348.94703,10.163911581039429,0.001067806035,3829.8578467
1574190348.9953535,10.21223497390747,0.001074154861,3852.84059682
1574190349.0433378,10.26021933555603,0.001079337671,3871.60236902
1574190349.0913265,10.308207988739014,0.001083119772,3885.29357464
1574190349.139314,10.356195449829102,0.001089185476,3907.25142312
1574190349.1872978,10.404179334640503,0.001093490981,3922.8373512199996
1574190349.2351575,10.452039003372192,0.001097125933,3935.99587746
1574190349.2831757,10.500057220458984,0.001100591384,3948.54081008
1574190349.3311644,10.548045873641968,0.00110482797,3963.8772514
1574190349.3791568,10.596038341522217,0.001108087599,3975.67710838
1574190349.4271085,10.64399003982544,0.001106712036,3970.69757032
1574190349.475105,10.691986560821533,0.001107334159,3972.94965558
1574190349.523086,10.739967584609985,0.001106883399,3971.31790438
1574190349.5710714,10.787952899932861,0.001093650237,3923.41385794
1574190349.6190646,10.835946083068848,0.001050563529,3767.4399749800004
1574190349.6670494,10.883930921554565,0.00098349154,3524.6393748
1574190349.7150555,10.931936979293823,0.000904070213,3237.13417106
1574190349.7630436,10.979925155639648,0.000816173851,2918.94934062
1574190349.809288,11.026169538497925,0.000722874887,2581.20709094
1574190349.857413,11.074294567108154,0.000630860217,2248.11398554
1574190349.9054003,11.122281789779663,0.000539307483,1916.69308846
1574190349.95339,11.170271396636963,0.000454831868,1610.89136216
1574190350.0013747,11.21825623512268,0.000376378186,1326.88903332
1574190350.0505126,11.267394065856934,0.000306088477,1072.44028674
1574190350.099487,11.316368579864502,0.00024699606,858.5257372
1574190350.1473436,11.364225149154663,0.000197980553,681.08960186
1574190350.1953313,11.41221284866333,0.000161133707,547.7040193400001
1574190350.243449,11.460330486297607,0.000134611502,451.69363724
1574190350.2914379,11.50831937789917,0.000116331503,385.52004086
1574190350.339294,11.556175470352173,0.000108655542,357.73306204
1574190350.3873122,11.604193687438965,0.000107364729,353.06031898
1574190350.4354024,11.652283906936646,0.00010798499,355.3056638
1574190350.4832866,11.700168132781982,0.000108094886,355.70348731999997
1574190350.5312448,11.74812626838684,0.000107922591,355.07977941999997
1574190350.5783062,11.795187711715698,0.000108607113,357.55774905999994
1574190350.6263077,11.843189239501953,0.000108076259,355.63605757999994
1574190350.6743205,11.891201972961426,0.000108556822,357.37569564
1574190350.7223794,11.939260959625244,0.000108592212,357.50380744
1574190350.7703812,11.987262725830078,0.000108364969,356.68118777999996
1574190350.8183696,12.035251140594482,0.000108980574,358.90967788
1574190350.866361,12.083242416381836,0.000108363107,356.67444734
1574190350.9155066,12.1323881149292,0.00010885857,358.4680234
1574190350.9634957,12.18037724494934,0.000108775683,358.16797246
1574190351.011483,12.22836446762085,0.000108589418,357.49369315999996
1574190351.0594702,12.276351690292358,0.000109222718,359.78623916
1574190351.1081975,12.325078964233398,0.00010862574,357.62517879999996
1574190351.1561868,12.37306833267212,0.000108907931,358.64671022
1574190351.2041714,12.421052932739258,0.000109412707,360.47399934
1574190351.252127,12.469008445739746,0.000108541921,357.32175401999996
1574190351.3001137,12.516995191574097,0.000109575689,361.06399418
1574190351.348112,12.564993619918823,0.000108608976,357.56449312
1574190351.396118,12.612999439239502,0.000109178014,359.62441068
1574190351.4440758,12.660957336425781,0.000109241344,359.85366528
1574190351.4920702,12.708951711654663,0.000108704902,357.91174523999996
1574190351.5401375,12.75701904296875,0.000109708868,361.54610216
1574190351.58815,12.805031538009644,0.000108833425,358.3769985
1574190351.6361501,12.853031635284424,0.00010946393,360.65942659999996
1574190351.684149,12.901030540466309,0.000109558925,361.0033085
1574190351.7321393,12.949020862579346,0.000108763576,358.12414512
1574190351.780021,12.996902465820312,0.000109449029,360.60548497999997
1574190351.8280437,13.044925212860107,0.000108487904,357.12621248
1574190351.8761158,13.092997312545776,0.00010899175,358.950135
1574190351.924006,13.14088749885559,0.000108954497,358.81527914
1574190351.9720771,13.188958644866943,0.000108624808,357.62180496
1574190352.0199378,13.23681926727295,0.000109185465,359.6513833
1574190352.0759268,13.292808294296265,0.000108594075,357.51055149999996
1574190352.1241527,13.341034173965454,0.000109110028,359.37830135999997
1574190352.1721509,13.389032363891602,0.000109069981,359.23333122
1574190352.2184117,13.435293197631836,0.00010870304,357.9050048
1574190352.2664938,13.483375310897827,0.000109302811,360.07617582
1574190352.3145368,13.531418323516846,0.000108702108,357.90163096
1574190352.362516,13.579397439956665,0.000109165907,359.58058334
1574190352.4086397,13.625521183013916,0.000109131448,359.45584175999994
1574190352.4565005,13.673382043838501,0.000108810142,358.29271403999996
1574190352.5045166,13.721398115158081,0.000109488145,360.74708489999995
1574190352.5526116,13.769493103027344,0.000108841807,358.40734133999996
1574190352.6005495,13.817430973052979,0.000109240413,359.85029505999995
1574190352.6485844,13.865465879440308,0.000109205954,359.72555348
1574190352.696468,13.913349628448486,0.000108868815,358.50511029999996
1574190352.7444403,13.961321830749512,0.000109598972,361.14827863999994
1574190352.7924137,14.009295225143433,0.000108848326,358.43094011999995
1574190352.8405347,14.057416200637817,0.00010933727,360.2009174
1574190352.8923962,14.109277725219727,0.00010928791,360.02223419999996
1574190352.9403875,14.15726900100708,0.000108915381,358.67367922
