Time, Time Since Begin, V/V Raw Data, Force 
1574185375.0157096,0.26800060272216797,-0.000147985294,-571.30676428
1574185375.0557625,0.30805349349975586,-0.000148054212,-571.55624744
1574185375.0956233,0.3479142189025879,-0.000148128718,-571.82595916
1574185375.1436145,0.3959054946899414,-0.00014824979,-572.2642398
1574185375.1836488,0.4359397888183594,-0.000148300081,-572.44629322
1574185375.2237186,0.4760096073150635,-0.000148296356,-572.43280872
1574185375.2637072,0.515998125076294,-0.000148202293,-572.09230066
1574185375.311694,0.5639848709106445,-0.000139304437,-539.88206194
1574185375.3515546,0.6038455963134766,-5.010888e-05,-216.9941456
1574185375.3915448,0.6438357830047607,5.0076284e-05,145.67614808000002
1574185375.4315333,0.6838243007659912,0.000225239433,779.7667474599999
1574185375.4795208,0.7318117618560791,0.000418569893,1479.62301266
1574185375.5195174,0.771808385848999,0.000601380132,2141.39607784
1574185375.5596278,0.8119187355041504,0.000746821053,2667.89221186
1574185375.5994923,0.851783275604248,0.000825617462,2953.13521244
1574185375.6474798,0.8997707366943359,0.000836811028,2993.6559213600003
1574185375.6875963,0.939887285232544,0.000833111815,2980.2647703000002
1574185375.7274573,0.9797482490539551,0.000831464306,2974.3007877200002
1574185375.7674503,1.0197412967681885,0.000830438919,2970.58888678
1574185375.8155677,1.0678586959838867,0.000829650089,2967.73332218
1574185375.8554544,1.1077454090118408,0.000828979537,2965.30592394
1574185375.8954618,1.1477527618408203,0.000828432851,2963.3269206200002
1574185375.9355361,1.1878271102905273,0.000827964395,2961.6311099
1574185375.9835265,1.2358174324035645,0.000827471726,2959.84764812
1574185376.0233853,1.2756762504577637,0.000827154145,2958.6980049000003
1574185376.063415,1.3157060146331787,0.000826902688,2957.78773056
1574185376.103392,1.3556828498840332,0.000821776688,2939.2316105600003
1574185376.1513534,1.403644323348999,0.000752614811,2688.86561582
1574185376.191348,1.4436390399932861,0.000626078807,2230.80528134
1574185376.2313302,1.4836211204528809,0.000465774909,1650.5051705800001
1574185376.2713401,1.5236310958862305,0.000292932615,1024.8160663
1574185376.319445,1.5717358589172363,0.000130562112,437.0348454399999
1574185376.3594284,1.6117193698883057,1.9166619e-05,33.783160779999996
1574185376.3993618,1.6516528129577637,-5.4935925e-05,-234.46804849999998
1574185376.4394088,1.691699743270874,-0.000119023025,-466.4633505
1574185376.4872713,1.7395622730255127,-0.000160230324,-615.63377288
1574185376.527266,1.7795569896697998,-0.000161841512,-621.46627344
1574185376.5753746,1.8276655673980713,-0.000158751383,-610.2800064600001
1574185376.6232617,1.8755526542663574,-0.000157612376,-606.15680112
1574185376.6713526,1.9236435890197754,-0.000156372786,-601.66948532
1574185376.7192354,1.9715263843536377,-0.00015604496,-600.4827552
1574185376.7671978,2.01948881149292,-0.000155351125,-597.9710725000001
1574185376.8151832,2.067474126815796,-7.6760538e-05,-313.47314756000003
1574185376.8632596,2.1155505180358887,4.0380284e-05,110.57662808
1574185376.9111593,2.163450241088867,0.000240095891,833.5471254199999
1574185376.9592772,2.2115681171417236,0.000459540635,1627.9370987
1574185377.0072598,2.2595508098602295,0.00065913517,2350.4693154
1574185377.0671184,2.3194093704223633,0.000794562511,2840.71628982
1574185377.1031623,2.3554532527923584,0.00084014982,3005.7423484
1574185377.151233,2.4035239219665527,0.000834991224,2987.06823088
1574185377.1991713,2.4514622688293457,0.000832460821,2977.90817202
1574185377.2472036,2.4994945526123047,0.000831251033,2973.52873946
1574185377.2951932,2.5474841594696045,0.000830576755,2971.0878531
1574185377.3431792,2.5954701900482178,0.000829687342,2967.86817804
1574185377.3911674,2.643458366394043,0.000829569995,2967.4433819
1574185377.4390311,2.691322088241577,0.000828910619,2965.0564407800002
1574185377.4871433,2.739434242248535,0.000828705728,2964.31473536
1574185377.5350134,2.787304401397705,0.000828515738,2963.62697156
1574185377.5831194,2.8354103565216064,0.000800599344,2862.56962528
1574185377.6310055,2.883296489715576,0.000685796142,2446.98203404
1574185377.6789975,2.931288480758667,0.000514972955,1828.6020971000003
1574185377.7269723,2.9792633056640625,0.000320732594,1125.4519902800002
1574185377.775072,3.0273630619049072,0.000134989619,453.06242078
1574185377.823058,3.0753488540649414,1.0200776e-05,1.32680912
1574185377.870944,3.123234987258911,-6.480515e-05,-270.194643
1574185377.918932,3.1712229251861572,-0.000136042945,-528.0754609
1574185377.967024,3.2193150520324707,-0.00016067829,-617.2554097999999
1574185378.0150084,3.2672994136810303,-0.000153230503,-590.29442086
1574185378.0628686,3.315159559249878,-0.00014201086,-549.6793132
1574185378.1108537,3.363144636154175,-0.000128407031,-500.43345222
1574185378.1588438,3.411134719848633,-0.000119062141,-466.60495042
1574185378.2068868,3.4591777324676514,-0.000111189671,-438.10660902
1574185378.2549584,3.507249355316162,-0.000104780309,-414.90471858
1574185378.3029358,3.5552268028259277,-0.000104990788,-415.66665256000005
1574185378.350925,3.6032159328460693,-0.000104536302,-414.02141324
1574185378.3989108,3.6512017250061035,-0.000104857609,-415.18454458
1574185378.4469023,3.699193239212036,-0.000104650855,-414.4360951
1574185378.4948914,3.7471823692321777,-0.000101094134,-401.56076508
1574185378.5428748,3.795165777206421,-2.3530796e-05,-120.78148152
1574185378.5907776,3.8430685997009277,0.000103060156,337.47776472
1574185378.6387496,3.891040563583374,0.000318839215,1118.5979583
1574185378.686847,3.9391379356384277,0.00053459499,1899.6338638000002
1574185378.7348263,3.987117290496826,0.000719592907,2569.32632334
1574185378.7827137,4.035004615783691,0.00082489755,2950.529131
1574185378.830804,4.083095073699951,0.000841722824,3011.43662288
1574185378.8786886,4.130979537963867,0.000837611966,2996.55531692
1574185378.9267786,4.179069519042969,0.000835957937,2990.56773194
1574185378.9746811,4.2269721031188965,0.000834928825,2986.8423465
1574185379.0226238,4.274914741516113,0.000833986327,2983.43050374
1574185379.0707421,4.323033094406128,0.000833755359,2982.5943995800003
1574185379.1186054,4.370896339416504,0.000833086669,2980.17374178
1574185379.1667147,4.419005632400513,0.000832864083,2979.36798046
1574185379.214706,4.466996908187866,0.000819555484,2931.1908520800002
1574185379.2626922,4.514983177185059,0.000718699768,2566.09316016
1574185379.3106856,4.562976598739624,0.000555532053,1975.42603186
1574185379.3586643,4.610955238342285,0.000360702164,1270.1418336800002
1574185379.4066563,4.658947229385376,0.000169266947,577.14634814
1574185379.4546437,4.706934690475464,2.9302202e-05,70.47397124
1574185379.502628,4.754919052124023,-5.5071898e-05,-234.96027076
1574185379.55062,4.802911043167114,-0.000126900151,-494.97854662
1574185379.598478,4.85076904296875,-0.000163221732,-626.46266984
1574185379.6466043,4.898895263671875,-0.000154744834,-595.7762990800001
1574185379.6945853,4.946876287460327,-0.00014262367,-551.8976854000001
1574185379.7425244,4.994815349578857,-0.000129251741,-503.49130242000007
1574185379.7905555,5.042846441268921,-0.00011847727,-464.4877174
1574185379.838548,5.09083890914917,-0.000109781511,-433.00906982000004
1574185379.886536,5.138826847076416,-7.7812001e-05,-317.27944362000005
1574185379.934421,5.186712026596069,1.4172867e-05,15.705778539999997
1574185379.9825106,5.234801530838013,0.000190214254,652.97559948
1574185380.030369,5.282660007476807,0.000412051566,1456.02666892
1574185380.0784705,5.330761432647705,0.00062040519,2210.2667878
1574185380.1263633,5.37865424156189,0.000777187757,2777.81968034
1574185380.1743808,5.426671743392944,0.000847061165,3030.7614173
1574185380.2224405,5.4747314453125,0.000843604095,3018.2468239
1574185380.2703512,5.522642135620117,0.000841279514,3009.83184068
1574185380.3182933,5.570584297180176,0.000839560293,3003.60826066
1574185380.3664134,5.618704319000244,0.000838853419,3001.0493767800003
1574185380.414401,5.666692018508911,0.000838237815,2998.8208903
1574185380.4623897,5.7146806716918945,0.000837548636,2996.32606232
1574185380.5103745,5.762665510177612,0.000837592408,2996.48451696
1574185380.5582378,5.810528755187988,0.000833487138,2981.6234395600004
1574185380.6063528,5.8586437702178955,0.000752032734,2686.7584970800003
1574185380.6543367,5.906627655029297,0.000596027821,2122.0207120200002
1574185380.7022052,5.954496145248413,0.000401661731,1418.41546622
1574185380.7501898,6.002480745315552,0.000204315409,704.0217805799999
1574185380.7993383,6.051629304885864,4.4043176e-05,123.83629712000001
1574185380.8474586,6.099749565124512,-4.6093017e-05,-202.45672154
1574185380.8954482,6.1477391719818115,-0.000118944794,-466.18015428
1574185380.943333,6.195623874664307,-0.000165105797,-633.28298514
1574185380.991421,6.243711948394775,-0.000159440562,-612.7748344400001
1574185381.039285,6.291575908660889,-0.000145822763,-563.47840206
1574185381.0873978,6.339688777923584,-0.000131646171,-512.15913902
1574185381.1352835,6.3875744342803955,-0.000119436532,-467.96024584
1574185381.1832495,6.435540437698364,-0.000109693035,-432.68878670000004
1574185381.2313151,6.4836061000823975,-5.6326389e-05,-239.50152817999998
1574185381.277588,6.529878854751587,4.4445507e-05,125.29273534000001
1574185381.3255756,6.577866554260254,0.000241553411,838.82334782
1574185381.3735616,6.625852584838867,0.00046154391,1635.1889542000001
1574185381.4215505,6.67384147644043,0.000662038103,2360.9779328600002
1574185381.4695385,6.721829414367676,0.000795030035,2842.4087267
1574185381.517426,6.76971697807312,0.000832316466,2977.38560692
1574185381.5655124,6.817803382873535,0.000827280805,2959.1565141
1574185381.6135058,6.865796804428101,0.000825259835,2951.8406027
1574185381.6613863,6.913677215576172,0.000823922455,2946.9992871
1574185381.7094767,6.961767673492432,0.000823500566,2945.4720489200004
1574185381.7573626,7.009653568267822,0.000822584145,2942.1546049
1574185381.8053267,7.057617664337158,0.000822356902,2941.33198524
1574185381.853441,7.105731964111328,0.000821973197,2939.94297314
1574185381.9014246,7.15371561050415,0.000820527785,2934.7105817
1574185381.949842,7.202132940292358,0.00075476896,2696.6636352
1574185381.997703,7.2499940395355225,0.00061200466,2179.8568692000003
1574185382.045696,7.29798698425293,0.000429634936,1519.67846832
1574185382.0976768,7.34996771812439,0.000239152461,830.1319088199999
1574185382.14172,7.3940110206604,7.2454102e-05,226.68384924
1574185382.1896522,7.441943168640137,-2.1956861e-05,-115.08383681999999
1574185382.2410374,7.493328332901001,-9.2075206e-05,-368.91224572000004
1574185382.28797,7.5402610301971436,-0.000146363862,-565.43718044
1574185382.3359585,7.588249444961548,-0.000151913613,-585.5272790600001
1574185382.3839462,7.636237144470215,-0.000149565749,-577.0280113800001
1574185382.431937,7.68422794342041,-0.000147495419,-569.53341678
1574185382.4798415,7.732132434844971,-0.000146995299,-567.72298238
1574185382.5279133,7.7802042961120605,-0.000146104023,-564.49656326
1574185382.5758557,7.828146696090698,-0.000145661645,-562.8951549
1574185382.6237578,7.876048803329468,-0.000145540573,-562.4568742600001
1574185382.6718752,7.924166202545166,-0.000129839405,-505.61864610000003
1574185382.7197328,7.9720237255096436,-2.1269545e-05,-112.59575290000001
1574185382.7678459,8.020136833190918,0.000117150135,388.4834887
1574185382.815709,8.068000078201294,0.00033693295,1184.097279
1574185382.8638306,8.116121530532837,0.000551926903,1962.37538886
1574185382.9118104,8.164101362228394,0.0007317774,2613.434188
1574185382.9596763,8.21196722984314,0.000826992095,2958.1113839
1574185383.00779,8.260081052780151,0.000836244784,2991.60611808
1574185383.0556915,8.307982444763184,0.000832948834,2979.6747790800005
1574185383.1037621,8.356053113937378,0.000831156038,2973.1848575599997
1574185383.1516507,8.403941631317139,0.000830456614,2970.65294268
1574185383.1996593,8.451950311660767,0.000829531811,2967.30515582
1574185383.2477283,8.500019311904907,0.000829237513,2966.2397970600005
1574185383.2957175,8.548008441925049,0.000828824006,2964.74290172
1574185383.3437054,8.595996379852295,0.000828330405,2962.9560661
1574185383.391694,8.643985033035278,0.000828389078,2963.1684623600004
1574185383.4396791,8.691970109939575,0.000827837735,2961.1726007
1574185383.4876723,8.739963293075562,0.000820864923,2935.9310212600003
1574185383.5355275,8.787818431854248,0.000731026754,2610.71684948
1574185383.5850456,8.837336540222168,0.000574619509,2044.5226225800002
1574185383.6296177,8.881908655166626,0.000385442749,1359.70275138
1574185383.6776009,8.92989182472229,0.000195409171,671.78119902
1574185383.7256076,8.977898597717285,4.3740496e-05,122.74059552
1574185383.773576,9.025866985321045,-4.3819658e-05,-194.22716196
1574185383.821564,9.073854923248291,-0.000110288151,-434.84310662
1574185383.8735538,9.125844717025757,-0.000153795816,-592.34085392
1574185383.9175417,9.169832706451416,-0.000150597654,-580.76350748
1574185383.9655814,9.217872381210327,-0.000137607567,-533.7393925399999
1574185384.013522,9.265812873840332,-0.000125811435,-491.03739470000005
1574185384.0615363,9.313827276229858,-0.000116750598,-458.23716476000004
1574185384.10951,9.361800909042358,-0.000107957982,-426.40789484000004
1574185384.1576018,9.409892797470093,-0.000107507221,-424.77614002
1574185384.2056034,9.457894325256348,-3.8019381e-05,-173.23015922
1574185384.2535846,9.505875587463379,7.489603e-05,235.52362860000002
1574185384.3015764,9.55386734008789,0.000284630805,994.7635141
1574185384.349566,9.60185694694519,0.00050342828,1786.8103736
1574185384.4010465,9.653337478637695,0.000696732663,2486.5722400600002
1574185384.4476905,9.699981451034546,0.000818099827,2925.92137374
1574185384.495684,9.747974872589111,0.000845219009,3024.09281258
1574185384.543672,9.795963048934937,0.000840668567,3007.6202125400005
1574185384.591659,9.843950033187866,0.000839136541,3002.07427842
1574185384.6396427,9.891933679580688,0.000837726519,2996.96999878
1574185384.6876287,9.939919710159302,0.000837232918,2995.18316316
1574185384.735495,9.987786054611206,0.000836655498,2993.09290276
1574185384.7836092,10.035900115966797,0.000836097635,2991.0734387
1574185384.8316011,10.083892107009888,0.000836089253,2991.04309586
1574185384.8794878,10.131778717041016,0.000835479237,2988.83483794
1574185384.927568,10.179858922958374,0.000835567713,2989.15512106
1574185384.9755557,10.227846622467041,0.000818687491,2928.0487174200002
1574185385.023548,10.275838851928711,0.000712559558,2543.86559996
1574185385.0715363,10.323827266693115,0.000546698458,1943.4484179600001
1574185385.1194234,10.371714353561401,0.000351796858,1237.9046259600002
1574185385.1674104,10.419701337814331,0.00016253069,552.7610978
1574185385.21542,10.467710971832275,2.7897768e-05,65.38992016
1574185385.2634876,10.515778541564941,-5.3998083e-05,-231.07306046
1574185385.3113449,10.56363582611084,-0.000123733655,-483.51583109999996
1574185385.3593314,10.611622333526611,-0.000157892704,-607.1715884800001
1574185385.4073184,10.659609317779541,-0.000147176906,-568.38039972
1574185385.4553058,10.707596778869629,-0.000131628476,-512.09508312
1574185385.5032935,10.755584478378296,-0.000119416043,-467.88607566
1574185385.551281,10.803571939468384,-0.000108112581,-426.96754322
1574185385.5992692,10.851560115814209,-0.000103578903,-410.55562886
1574185385.6472583,10.89954924583435,-0.000103196129,-409.16998698000003
1574185385.695246,10.947536945343018,-0.000103075057,-408.73170634
1574185385.7432344,10.995525360107422,-0.000103223138,-409.26775956
1574185385.7912378,11.04352879524231,-0.000102803111,-407.74726182
1574185385.8392105,11.091501474380493,-0.000103102997,-408.83284914000006
1574185385.8872151,11.139506101608276,-0.000102805905,-407.75737610000004
1574185385.9351866,11.187477588653564,-4.5225956e-05,-199.31796072
1574185385.983191,11.235481977462769,6.0101971e-05,181.96913502
1574185386.0311627,11.283453702926636,0.000264702365,922.6225613
1574185386.0791492,11.331440210342407,0.000484190881,1717.1709892200001
1574185386.1271358,11.379426717758179,0.000681789592,2432.4783230400003
1574185386.1751237,11.427414655685425,0.000810381025,2897.9793105
1574185386.2231293,11.475420236587524,0.000845681876,3025.76839112
1574185386.2711186,11.523409605026245,0.000841096975,3009.1710494999998
1574185386.3191063,11.571397304534912,0.000838786364,3000.8066376799998
1574185386.3670743,11.619365215301514,0.000837869942,2997.4891900400003
1574185386.4150627,11.667353630065918,0.000837087631,2994.65722422
1574185386.4630697,11.715360641479492,0.000836320221,2991.87920002
1574185386.5110385,11.76332950592041,0.000836327672,2991.90617264
1574185386.5590646,11.811355590820312,0.000835651532,2989.45854584
1574185386.6070323,11.859323263168335,0.000835573301,2989.1753496200004
1574185386.6550012,11.907292127609253,0.000818404369,2927.0238157800004
1574185386.7029932,11.955284118652344,0.000710815191,2537.55099142
1574185386.7509766,12.003267526626587,0.000543829054,1933.0611754800002
1574185386.7989755,12.051266431808472,0.000346879475,1220.1036995000002
1574185386.8469532,12.099244117736816,0.000156315975,530.2638295
1574185386.8949423,12.147233247756958,2.239272e-05,45.4616464
1574185386.942931,12.195221900939941,-5.8598816e-05,-247.72771392
1574185386.9909172,12.243208169937134,-0.000132421963,-514.96750606
1574185387.0389054,12.291196346282959,-0.000165353529,-634.17977498
1574185387.0868924,12.339183330535889,-0.000154918991,-596.4067474200001
1574185387.1348798,12.387170791625977,-0.000142378733,-551.01101346
1574185387.1828673,12.435158252716064,-0.000129121356,-503.0193087200001
1574185387.230857,12.483147859573364,-0.000116806477,-458.43944674
1574185387.2788467,12.531137704849243,-3.1836331e-05,-150.84751821999998
1574185387.3268313,12.579122304916382,9.1455877e-05,295.47027474
1574185387.3748207,12.627111673355103,0.000305700116,1071.03441992
1574185387.4228246,12.675115585327148,0.000523344614,1858.9075026799999
1574185387.4707966,12.723087549209595,0.000711452216,2539.85702192
1574185387.5189147,12.77120566368103,0.000818997622,2929.1713916400004
1574185387.5668154,12.819106340408325,0.000831570476,2974.68512312
1574185387.6147654,12.867056369781494,0.000828266144,2962.72344128
1574185387.6627479,12.915038824081421,0.00082648173,2956.2638626000003
1574185387.7107348,12.96302580833435,0.00082590431,2954.1736022
1574185387.7587318,13.011022806167603,0.000824844465,2950.3369633
1574185387.806712,13.059002876281738,0.00082464423,2949.6121126
1574185387.854707,13.106997966766357,0.000824277289,2948.2837861800003
1574185387.9026875,13.154978513717651,0.000823746435,2946.3620947
1574185387.9506726,13.202963590621948,0.000823873095,2946.8206039
1574185387.9986625,13.250953435897827,0.000823311508,2944.78765896
1574185388.0466483,13.298939228057861,0.000823357143,2944.95285766
1574185388.0946357,13.34692668914795,0.000806640834,2884.4398190800002
1574185388.1506233,13.40291428565979,0.000700287521,2499.4408260200003
1574185388.1906114,13.442902326583862,0.000537497923,1910.1424812599998
1574185388.2386003,13.490891218185425,0.000346758403,1219.66541886
1574185388.2865906,13.538881540298462,0.000160118565,544.0292053
1574185388.334575,13.586865901947021,2.7464703e-05,63.82222486
1574185388.3825648,13.6348557472229,-5.4389238e-05,-232.48904156
1574185388.4305522,13.682843208312988,-0.000123924576,-484.20696512000006
1574185388.4785392,13.730830192565918,-0.000158541836,-609.52144632
1574185388.5265257,13.77881669998169,-0.000148149207,-571.90012934
1574185388.5745144,13.826805353164673,-0.000133108348,-517.4522197599999
1574185388.6225033,13.874794244766235,-0.000121697783,-476.14597446000005
1574185388.6704907,13.922781705856323,-0.000110489316,-435.57132392000005
1574185388.718478,13.970768928527832,-0.000104955398,-415.53854076
1574185388.766485,14.018775939941406,-0.000104585662,-414.20009644000004
1574185388.814472,14.066762924194336,-0.000104446895,-413.6977599
1574185388.862441,14.114732027053833,-0.000104663894,-414.48329628000005
