Time, Time Since Begin, V/V Raw Data, Force 
1574180592.8100839,0.2559647560119629,5.1764771e-05,151.78847102
1574180592.8500972,0.2959780693054199,5.1802024e-05,151.92332688000002
1574180592.8901668,0.3360476493835449,5.1872805e-05,152.17955410000002
1574180592.9381566,0.38403749465942383,5.1875599e-05,152.18966838
1574180592.9781463,0.4240272045135498,5.1868148e-05,152.16269576
1574180593.0181377,0.4640185832977295,5.1910989e-05,152.31778018
1574180593.058124,0.504004955291748,5.1867217e-05,152.15932554
1574180593.1061165,0.5519974231719971,5.1857904e-05,152.12561248
1574180593.1461005,0.5919814109802246,5.187653e-05,152.1930386
1574180593.1859665,0.6318473815917969,5.1870011e-05,152.16943982
1574180593.225987,0.671867847442627,5.1875599e-05,152.18966838
1574180593.2739496,0.7198305130004883,5.1895157e-05,152.26046834000002
1574180593.313938,0.7598187923431396,5.1883981e-05,152.22001122
1574180593.3539279,0.7998087406158447,5.1856972e-05,152.12223864
1574180593.3939157,0.8397965431213379,5.187653e-05,152.1930386
1574180593.4420397,0.887920618057251,5.1896088e-05,152.26383856
1574180593.481943,0.9278237819671631,5.1910058e-05,152.31440996
1574180593.52202,0.9679009914398193,5.1877461e-05,152.19640882000002
1574180593.561885,1.0077660083770752,5.1881187e-05,152.20989694
1574180593.609876,1.0557568073272705,5.1843002e-05,152.07166723999998
1574180593.649858,1.0957388877868652,5.1839277e-05,152.05818274
1574180593.6898468,1.1357276439666748,5.1874667e-05,152.18629454
1574180593.729964,1.1758449077606201,5.1872805e-05,152.17955410000002
1574180593.777857,1.2237379550933838,5.1894225e-05,152.2570945
1574180593.8178272,1.2637081146240234,5.1899813e-05,152.27732306000001
1574180593.8578568,1.3037376403808594,5.1558018e-05,151.04002516
1574180593.897844,1.3437249660491943,5.1789917e-05,151.87949953999998
1574180593.9459198,1.3918006420135498,5.1936135e-05,152.4088087
1574180593.9858232,1.431704044342041,5.2271411e-05,153.62250782
1574180594.0258965,1.4717774391174316,5.2294694e-05,153.70679228000003
1574180594.06576,1.5116407871246338,5.2246265e-05,153.5314793
1574180594.1138437,1.5597245693206787,5.1118433e-05,149.44872746
1574180594.1538253,1.5997061729431152,4.6847388e-05,133.98754456
1574180594.1938636,1.639744520187378,3.563799e-05,93.40952380000002
1574180594.2338521,1.6797330379486084,2.5801361e-05,57.800926819999994
1574180594.28184,1.7277209758758545,1.5586615e-05,20.82354629999999
1574180594.3218274,1.7677083015441895,6.128103e-06,-13.416267140000002
1574180594.3698225,1.8157033920288086,-2.482906e-06,-44.58811972
1574180594.4176762,1.8635571002960205,-5.916692e-06,-57.018425040000004
1574180594.4657981,1.9116790294647217,-5.496666e-06,-55.49793092
1574180594.513742,1.959622859954834,-5.989335e-06,-57.2813927
1574180594.5616715,2.0075523853302,-5.129725e-06,-54.169604500000005
1574180594.609677,2.0555579662323,-5.681999e-06,-56.16883638
1574180594.657756,2.1036369800567627,-5.461276e-06,-55.36981912
1574180594.7057424,2.151623249053955,-8.701347e-06,-67.09887614
1574180594.7536848,2.1995656490325928,-1.3587065e-05,-84.78517529999999
1574180594.801587,2.2474679946899414,-1.5349127e-05,-91.16383974
1574180594.8497088,2.2955896854400635,-1.7936341e-05,-100.52955441999998
1574180594.8976974,2.343578338623047,-1.9164756e-05,-104.97641672
1574180594.9456832,2.391564130783081,-1.9314699e-05,-105.51921038
1574180594.9935489,2.439429759979248,-1.9134954e-05,-104.86853348
1574180595.0415292,2.487410068511963,-1.9072555e-05,-104.6426491
1574180595.12551,2.5713908672332764,-1.8959865e-05,-104.23471129999999
1574180595.1415086,2.5873894691467285,-1.8911436e-05,-104.05939831999999
1574180595.185533,2.6314139366149902,-1.8926337e-05,-104.11333994
1574180595.2336168,2.679497718811035,-1.8800609e-05,-103.65820457999999
1574180595.2854736,2.7313544750213623,-1.883693e-05,-103.78968660000001
1574180595.3334627,2.779343605041504,-1.8756837e-05,-103.49974994000002
1574180595.3775797,2.823460578918457,-1.8755905e-05,-103.49637610000002
1574180595.429441,2.875321865081787,-1.8407591e-05,-102.23547941999999
1574180595.4734302,2.919311046600342,-1.8998981e-05,-104.37631121999999
1574180595.5254185,2.971299409866333,-1.8340535e-05,-101.9927367
1574180595.5734055,3.0192863941192627,-1.876615e-05,-103.53346300000001
1574180595.6213973,3.0672781467437744,-1.8627383e-05,-103.03112646
1574180595.6693823,3.1152632236480713,-1.8179417e-05,-101.40948954000001
1574180595.7173824,3.1632633209228516,-1.8927269e-05,-104.11671378
1574180595.765361,3.2112419605255127,-1.8212944e-05,-101.53085727999999
1574180595.8133495,3.259230375289917,-1.8580817e-05,-102.86255754000001
1574180595.8613374,3.307218313217163,-1.8541701e-05,-102.72095762000001
1574180595.909326,3.3552069664001465,-1.8144026e-05,-101.28137412000001
1574180595.9573183,3.4031991958618164,-1.8783845e-05,-103.59751890000001
1574180596.005307,3.4511878490448,-1.8164515e-05,-101.35554429999999
1574180596.053327,3.4992079734802246,-1.8471852e-05,-102.46810424
1574180596.10132,3.547200918197632,-1.8502586e-05,-102.57936132
1574180596.149315,3.595196008682251,-1.7993152e-05,-100.73521024000001
1574180596.1972585,3.643139362335205,-1.0487624e-05,-73.56519888
1574180596.2452803,3.6911611557006836,-3.25032e-07,-36.77661584
1574180596.2933092,3.739190101623535,1.237914e-05,9.212486799999994
1574180596.341258,3.7871389389038086,2.4553388e-05,53.28326456
1574180596.3893118,3.8351926803588867,2.6429072e-05,60.07324064
1574180596.4372077,3.8830885887145996,2.9508956e-05,71.22242072
1574180596.4852011,3.931082010269165,3.7952326e-05,101.78742012000001
1574180596.5332713,3.979152202606201,5.1116571e-05,149.44198702
1574180596.581303,4.027183771133423,6.6428445e-05,204.87097090000003
1574180596.6291559,4.0750367641448975,8.1293285e-05,258.6816917
1574180596.6772788,4.123159646987915,9.5041469e-05,308.45011777999997
1574180596.7252693,4.171150207519531,0.000111965463,369.71497605999997
1574180596.7731528,4.219033718109131,0.000128317624,428.90979888
1574180596.8211205,4.267001390457153,0.000145441853,490.89950785999997
1574180596.8691013,4.314982175827026,0.000163294375,555.5256374999999
1574180596.917092,4.362972974777222,0.000179981813,615.93416306
1574180596.9652162,4.411097049713135,0.000198106281,681.54473722
1574180597.0132024,4.459083318710327,0.000215209089,743.45690218
1574180597.061188,4.507068872451782,0.00023244787,805.8612894
1574180597.10913,4.555010795593262,0.000250682235,871.8696907
1574180597.1570635,4.602944374084473,0.000267042778,931.0948563599999
1574180597.2051566,4.6510374546051025,0.000284833834,995.49847908
1574180597.2531462,4.699027061462402,0.000301271677,1055.00347074
1574180597.3011315,4.747012376785278,0.000317668542,1114.36012204
1574180597.3491216,4.795002460479736,0.000334401615,1174.9338463000001
1574180597.3969772,4.842858076095581,0.000349792652,1230.6494002400002
1574180597.4450972,4.890978097915649,0.000365551561,1287.69665082
1574180597.4930909,4.938971757888794,0.000380777754,1342.8154694800003
1574180597.5410771,4.986958026885986,0.000395408832,1395.7799718400001
1574180597.5889626,5.034843444824219,0.000410594977,1450.75381674
1574180597.6369226,5.08280348777771,0.000423924997,1499.00848914
1574180597.6850405,5.130921363830566,0.000438312069,1551.08968978
1574180597.7330303,5.178911209106445,0.000451561995,1599.0544219
1574180597.7808878,5.226768732070923,0.000464387238,1645.4818015600001
1574180597.8290071,5.274888038635254,0.000477470458,1692.8430579600001
1574180597.8769817,5.32286262512207,0.000489159487,1735.15734294
1574180597.9249833,5.370864152908325,0.000501686707,1780.50587934
1574180597.9728587,5.418739557266235,0.000512911007,1821.13784534
1574180598.0209587,5.466839551925659,0.000523705035,1860.2122267000002
1574180598.0689502,5.514831066131592,0.00053495355,1900.931851
1574180598.1169398,5.562820672988892,0.000544117764,1934.10630568
1574180598.1649258,5.610806703567505,0.000554428436,1971.4309383200002
1574180598.2129173,5.6587982177734375,0.00056364201,2004.7840762
1574180598.2609065,5.706787347793579,0.000572770834,2037.8304190800004
1574180598.3088977,5.754778623580933,0.000583106652,2075.24608024
1574180598.3567538,5.8026347160339355,0.00059171766,2106.4179292000003
1574180598.404763,5.850643873214722,0.000601129606,2140.48917372
1574180598.4528627,5.898743629455566,0.000610093586,2172.93878132
1574180598.5008483,5.9467291831970215,0.000618396327,2202.99470374
1574180598.5487585,5.9946393966674805,0.000627167523,2234.74643326
1574180598.5967207,6.042601585388184,0.000634794123,2262.35472526
1574180598.6446857,6.090566635131836,0.000642708503,2291.00478086
1574180598.692804,6.138684988021851,0.000649908558,2317.06897996
1574180598.7406657,6.186546564102173,0.00065710023,2343.1028326
1574180598.7886794,6.234560251235962,0.000665050931,2371.88437022
1574180598.8366477,6.282528638839722,0.000670329668,2390.99339816
1574180598.8846848,6.330565690994263,0.000677108765,2415.5337293000002
1574180598.9327388,6.37861967086792,0.000682812184,2436.1801060800003
1574180598.980723,6.4266037940979,0.000689772889,2461.37785818
1574180599.0286818,6.474562644958496,0.000695962459,2483.78410158
1574180599.076714,6.522594928741455,0.000701185316,2502.69084392
1574180599.1245713,6.5704522132873535,0.000706842169,2523.1686517800003
1574180599.1726875,6.618568420410156,0.000712724403,2544.4623388600003
1574180599.2205942,6.666475057601929,0.000717397779,2561.37995998
1574180599.2686703,6.714551210403442,0.000723351724,2582.93324088
1574180599.3165264,6.762407302856445,0.000727333128,2597.34592336
1574180599.3646476,6.810528516769409,0.000731884502,2613.82189724
1574180599.4126322,6.858513116836548,0.000736120157,2629.15496834
1574180599.460625,6.906505823135376,0.000740673393,2645.6376826600003
1574180599.5086095,6.954490423202515,0.00074507948,2661.5877176
1574180599.5566018,7.002482652664185,0.000748694874,2674.6754438800003
1574180599.6044593,7.050340175628662,0.000753213651,2691.03341662
1574180599.6525805,7.098461389541626,0.000752511434,2688.49139108
1574180599.7005658,7.146446704864502,0.000751746818,2685.72348116
1574180599.7484543,7.194335222244263,0.000751877204,2686.19547848
1574180599.7964141,7.242295026779175,0.00075088907,2682.6184334
1574180599.8444552,7.2903361320495605,0.000750991516,2682.98928792
1574180599.89252,7.338400840759277,0.000750555657,2681.41147834
1574180599.940466,7.386346817016602,0.00075003691,2679.5336142
1574180599.988392,7.43427300453186,0.000750358216,2680.69674192
1574180600.0364928,7.4823737144470215,0.000749492086,2677.56135132
1574180600.0844786,7.530359506607056,0.000749764033,2678.54579946
1574180600.132335,7.578215837478638,0.000749432482,2677.34558484
1574180600.180356,7.626236915588379,0.000748737715,2674.8305283000004
1574180600.2284467,7.674327611923218,0.000737752765,2635.0650093000004
1574180600.27633,7.722210884094238,0.000710639171,2536.91379902
1574180600.324351,7.7702319622039795,0.000675387681,2409.30340522
1574180600.3723297,7.818210601806641,0.000633349642,2257.12570404
1574180600.4204001,7.866281032562256,0.0005894145,2098.08049
1574180600.4682555,7.9141364097595215,0.000546306372,1942.02906664
1574180600.5163782,7.96225905418396,0.000502424315,1783.1760203
1574180600.564365,8.01024580001831,0.000461352989,1634.4978201800002
1574180600.6123533,8.058234214782715,0.000422551297,1494.0356951400001
1574180600.660344,8.106224775314331,0.000387115404,1365.75776248
1574180600.7083344,8.154215335845947,0.00035689678,1256.3663436000002
1574180600.7562184,8.202099323272705,0.000330382958,1160.38630796
1574180600.8041995,8.250080347061157,0.000311527401,1092.12919162
1574180600.8521812,8.298062086105347,0.000297633,1041.83146
1574180600.9001842,8.346065044403076,0.000289172865,1011.2057713
1574180600.9481428,8.394023656845093,0.000285166316,996.7020639199999
1574180600.9962604,8.44214129447937,0.000283545814,990.8358466799999
1574180601.0442543,8.490135192871094,0.00028402172,992.5586264
1574180601.09211,8.537990808486938,0.000284103677,992.8553107399999
1574180601.1402307,8.586111545562744,0.00028379634,991.7427508
1574180601.1882148,8.634095668792725,0.00028450042,994.2915204
1574180601.2360766,8.681957483291626,0.000283868052,992.0023482400001
1574180601.2840655,8.729946374893188,0.000284269452,993.4554162400001
1574180601.3321817,8.778062582015991,0.000284393318,993.9038111599999
1574180601.3801742,8.82605504989624,0.000284006819,992.5046847799998
1574180601.4281628,8.874043703079224,0.000284644775,994.8140855
1574180601.4761505,8.92203140258789,0.000284112059,992.8856535799999
1574180601.5241392,8.970020055770874,0.000284375623,993.8397552600001
1574180601.5721326,9.01801347732544,0.000284460373,994.14655026
1574180601.6201167,9.06599760055542,0.000284073874,992.7474238799999
1574180601.6679733,9.113854169845581,0.000284756534,995.2186530799999
1574180601.7159617,9.161842584609985,0.00028417632,993.1182783999999
1574180601.7639515,9.209832429885864,0.000284481794,994.2240942799998
1574180601.811969,9.257849931716919,0.000284580514,994.5814606799999
1574180601.8600643,9.30594515800476,0.00028414093,992.9901666000002
1574180601.9080076,9.353888511657715,0.000284809619,995.4108207799999
1574180601.9559066,9.401787519454956,0.000284209847,993.23964614
1574180602.0040293,9.449910163879395,0.000284508802,994.32186324
1574180602.0520172,9.49789810180664,0.000284630805,994.7635141
1574180602.099967,9.54584789276123,0.000284218229,993.26998898
1574180602.147992,9.593872785568237,0.000293678604,1027.51654648
1574180602.1958795,9.641760349273682,0.000310770236,1089.3882543200002
1574180602.2439704,9.6898512840271,0.000328516588,1153.63004856
1574180602.2919598,9.73784065246582,0.000345969573,1216.80985426
1574180602.3398151,9.785696029663086,0.000362399966,1276.2878769200001
1574180602.3878562,9.833737134933472,0.000379241072,1337.25268064
1574180602.4357934,9.88167428970337,0.000394285657,1391.71407834
1574180602.4838324,9.929713249206543,0.000409950502,1448.4208172400001
1574180602.531903,9.977783918380737,0.00042477157,1502.0730834
1574180602.5797896,10.025670528411865,0.000438963994,1553.44965828
1574180602.6278775,10.073758363723755,0.000453330576,1605.45668512
1574180602.6797364,10.125617265701294,0.000466628,1653.59336
1574180602.7237737,10.169654607772827,0.000479855575,1701.4771815000001
1574180602.7717617,10.217642545700073,0.000492792577,1748.30912874
1574180602.8197029,10.265583753585815,0.000504572876,1790.95381112
1574180602.8678086,10.313689470291138,0.00051744096,1837.5362752000003
1574180602.9158115,10.361692428588867,0.000528085046,1876.06786652
1574180602.9636695,10.409550428390503,0.000539638102,1917.88992924
1574180603.011704,10.457584857940674,0.000550374389,1956.7552881800002
1574180603.0597801,10.505661010742188,0.000560413115,1993.0954763000002
1574180603.1076427,10.553523540496826,0.000571764074,2034.1859478800002
1574180603.155625,10.601505994796753,0.000581458211,2069.27872382
1574180603.2036166,10.649497509002686,0.000591127202,2104.28047124
1574180603.251641,10.697521924972534,0.000600890256,2139.62272672
1574180603.2997189,10.745599746704102,0.00060939882,2170.4237284
1574180603.347711,10.793591976165771,0.000618348829,2202.82276098
1574180603.395696,10.84157681465149,0.000625776127,2229.70957974
1574180603.4436853,10.88956618309021,0.000633692369,2258.36637578
1574180603.4916816,10.937562465667725,0.000641207211,2285.57010382
1574180603.5396667,10.985547542572021,0.000648937188,2313.5526205600004
1574180603.5876124,11.033493280410767,0.000656426884,2340.66532008
1574180603.6355412,11.081422090530396,0.000662159175,2361.4162135
1574180603.6835535,11.12943434715271,0.000668534078,2384.4933623600004
1574180603.731508,11.177388906478882,0.00067634508,2412.7691896
1574180603.7794783,11.225359201431274,0.000682690181,2435.73845522
1574180603.8274665,11.2733473777771,0.000689983368,2462.13979216
1574180603.8755867,11.321467638015747,0.00069526583,2481.2623046
1574180603.9235754,11.36945629119873,0.000701587647,2504.14728214
1574180603.9715667,11.417447566986084,0.000707823783,2526.7220944600003
1574180604.0194511,11.46533203125,0.000712841749,2544.88713138
1574180604.0674286,11.513309478759766,0.000718674622,2566.0021316400002
1574180604.1154275,11.56130838394165,0.000722656026,2580.4148141200003
1574180604.163413,11.609293937683105,0.000727056526,2596.34462412
1574180604.2114694,11.657350301742554,0.000731917098,2613.9398947600002
1574180604.2594962,11.705377101898193,0.000735563226,2627.1388781200003
1574180604.3087676,11.754648447036743,0.000740211457,2643.96547434
1574180604.3567598,11.802640676498413,0.000744349323,2658.94454926
1574180604.404751,11.850631952285767,0.000748110004,2672.55821448
1574180604.452737,11.89861798286438,0.000748235732,2673.01334984
1574180604.5007246,11.946605443954468,0.00074743852,2670.1274424
1574180604.5487108,11.99459171295166,0.000747849233,2671.61422346
1574180604.596572,12.042452812194824,0.000747337937,2669.76333194
1574180604.6445622,12.090443134307861,0.000747209415,2669.2980823
1574180604.69255,12.138430833816528,0.000747443177,2670.1443007400003
1574180604.7405894,12.18647027015686,0.000746708363,2667.48427406
1574180604.788523,12.234403848648071,0.000747244805,2669.4261941
1574180604.8365488,12.282429695129395,0.000746775419,2667.72701678
1574180604.8846416,12.330522537231445,0.000746613368,2667.14039216
1574180604.9324913,12.378372192382812,0.00074691046,2668.2158652000003
1574180604.9806113,12.42649221420288,0.000746219419,2665.71429678
1574180605.0285962,12.474477052688599,0.000746736303,2667.58541686
1574180605.0764658,12.52234673500061,0.000746363774,2666.23686188
1574180605.132444,12.578324794769287,0.000746221282,2665.72104084
1574180605.1724396,12.61832046508789,0.000746557489,2666.93811018
1574180605.2204864,12.666367292404175,0.000745825469,2664.28819778
1574180605.2685454,12.714426279067993,0.000744891353,2660.9066978600003
1574180605.3165333,12.76241421699524,0.000728866085,2602.8952277
1574180605.3645194,12.810400247573853,0.00069981534,2497.7315307999997
1574180605.4125106,12.858391523361206,0.000662991777,2364.43023274
1574180605.4605,12.906380891799927,0.000620400533,2210.24992946
1574180605.508481,12.954361915588379,0.000578036532,2056.89224584
1574180605.556375,13.002255916595459,0.000535070896,1901.35664352
1574180605.604338,13.0502188205719,0.000493014231,1749.11151622
1574180605.6523745,13.098255395889282,0.000454004854,1607.8975714800001
1574180605.7004435,13.146324396133423,0.000416154042,1470.8776320400002
1574180605.7484324,13.194313287734985,0.000383909792,1354.1534470400002
1574180605.796297,13.242177963256836,0.000354968943,1249.3875736600003
1574180605.8444042,13.290285110473633,0.000331266783,1163.58575446
1574180605.8923967,13.338277578353882,0.000314846635,1104.1448187
1574180605.9403052,13.386186122894287,0.00030242186,1059.1671332
1574180605.988377,13.434257984161377,0.000297046266,1039.70748292
1574180606.036235,13.482115983963013,0.00029618945,1036.6058090000001
1574180606.0842216,13.530102491378784,0.000296021812,1035.9989594400001
1574180606.1323469,13.578227758407593,0.00029672496,1038.5443552000002
1574180606.1803296,13.626210451126099,0.000295926817,1035.65507754
1574180606.2281897,13.674070596694946,0.000296685845,1038.4027589000002
1574180606.2763083,13.72218918800354,0.000296504237,1037.7453379400001
1574180606.3242996,13.770180463790894,0.000296551734,1037.91727708
1574180606.372288,13.818168878555298,0.00029658433,1038.0352746
1574180606.4202743,13.86615514755249,0.000296599232,1038.08921984
1574180606.468131,13.91401195526123,0.000296600163,1038.09259006
1574180606.5161269,13.962007761001587,0.000296656042,1038.2948720400002
1574180606.564106,14.009986877441406,0.000296623446,1038.17687452
1574180606.612096,14.057976961135864,0.000296728685,1038.5578397
1574180606.6600842,14.10596513748169,0.000296662562,1038.31847444
1574180606.7080727,14.153953552246094,0.000296782702,1038.7533812400002
1574180606.756061,14.201941967010498,0.000296726823,1038.55109926
