Time, Time Since Begin, V/V Raw Data, Force 
1574182888.6882296,0.2280747890472412,1.4305e-05,16.184099999999994
1574182888.9441662,0.4840114116668701,1.3628043e-05,13.733515659999995
1574182888.9841545,0.5239996910095215,1.3697892e-05,13.98636904
1574182889.0240066,0.5638518333435059,1.3791025e-05,14.323510499999998
1574182889.0720167,0.6118619441986084,1.3778917e-05,14.279679539999997
1574182889.1119885,0.6518337726593018,1.3697892e-05,13.98636904
1574182889.1521163,0.6919615268707275,1.358334e-05,13.571690799999999
1574182889.1920347,0.7318799495697021,1.349207e-05,13.241293400000004
1574182889.240041,0.7798862457275391,1.3445504e-05,13.072724479999998
1574182889.280071,0.8199162483215332,1.561176e-05,20.914571199999997
1574182889.320064,0.8599092960357666,5.0905161e-05,148.67668282000002
1574182889.3600197,0.899864912033081,0.000107730739,354.38527518
1574182889.4080348,0.9478800296783447,0.000195550732,672.2936498400001
1574182889.4478993,0.9877445697784424,0.000292972662,1024.9610364400003
1574182889.4878867,1.0277318954467773,0.000377426855,1330.6852151
1574182889.528578,1.0684232711791992,0.000431508757,1526.46170034
1574182889.5764568,1.1163020133972168,0.000441987067,1564.3931825400002
1574182889.616417,1.1562621593475342,0.000441526994,1562.72771828
1574182889.6564045,1.1962497234344482,0.000441246666,1561.7129309200002
1574182889.6964278,1.2362730503082275,0.000441208482,1561.57470484
1574182889.744384,1.2842292785644531,0.000441183336,1561.48367632
1574182889.7844572,1.3243024349212646,0.000441159122,1561.39602164
1574182889.8243597,1.3642048835754395,0.00044115819,1561.3926478
1574182889.8644824,1.404327630996704,0.000441124663,1561.27128006
1574182889.9123404,1.4521856307983398,0.000441033393,1560.9408826600002
1574182889.952327,1.4921722412109375,0.000440933742,1560.58014604
1574182889.992317,1.5321621894836426,0.0004407987,1560.0912940000003
1574182890.032445,1.5722901821136475,0.000440710224,1559.7710108800002
1574182890.0803022,1.620147466659546,0.000440623611,1559.4574718200001
1574182890.1204193,1.660264492034912,0.000440643169,1559.52827178
1574182890.160275,1.700120210647583,0.000438027084,1550.0580440800002
1574182890.2002711,1.7401163578033447,0.000406717882,1436.7187328400003
1574182890.2483912,1.788236379623413,0.000351893716,1238.25525192
1574182890.2883692,1.828214406967163,0.000286781229,1002.5480489800001
1574182890.32823,1.8680751323699951,0.000217559747,751.96628414
1574182890.3682263,1.908071517944336,0.000149438158,505.36613195999996
1574182890.4162354,1.956080675125122,8.7499619e-05,281.14862078
1574182890.464324,2.004169225692749,3.96166e-05,107.812092
1574182890.513464,2.053309202194214,1.4530495e-05,17.000391900000004
1574182890.5613248,2.101170063018799,-6.086193e-06,-57.63201866
1574182890.6093087,2.1491539478302,-1.2158416e-05,-79.61346592000001
1574182890.6572948,2.1971399784088135,-1.2219884e-05,-79.83598008
1574182890.705327,2.2451722621917725,-1.1930242e-05,-78.78747604
1574182890.7532983,2.2931435108184814,-1.1916272e-05,-78.73690464
1574182890.8013833,2.341228485107422,-1.192186e-05,-78.7571332
1574182890.8493714,2.389216661453247,-1.166109e-05,-77.8131458
1574182890.8973615,2.437206745147705,-4.252419e-06,-50.99375678
1574182890.945219,2.4850642681121826,3.3451244e-05,85.49350328
1574182890.9932423,2.5330874919891357,0.0001070695,351.99159
1574182891.041329,2.58117413520813,0.000218509696,755.4050995199999
1574182891.089179,2.6290242671966553,0.000329971313,1158.8961530600002
1574182891.1373065,2.677151679992676,0.000414880924,1466.2689448800002
1574182891.1873467,2.727191925048828,0.000447870232,1585.69023984
1574182891.2353487,2.775193929672241,0.000447468832,1584.2371718400002
1574182891.2833326,2.8231778144836426,0.000447208062,1583.2931844400002
1574182891.3313196,2.8711647987365723,0.000447293743,1583.60334966
1574182891.3793519,2.9191970825195312,0.000446838327,1581.9547437400001
1574182891.4273467,2.9671919345855713,0.000447019935,1582.6121647
1574182891.4753454,3.015190601348877,0.00044686161,1582.0390282
1574182891.5199997,3.059844970703125,0.000446729362,1581.56029044
1574182891.5678668,3.1077120304107666,0.000446900725,1582.1806245
1574182891.6159742,3.1558194160461426,0.000446619466,1581.1624669200003
1574182891.6639624,3.2038075923919678,0.000446767546,1581.6985165199999
1574182891.7119489,3.2517940998077393,0.000446624123,1581.17932526
1574182891.7599378,3.2997829914093018,0.000446570106,1580.98378372
1574182891.807792,3.347637176513672,0.000446701422,1581.45914764
1574182891.8557796,3.395624876022339,0.000446492806,1580.7039577200003
1574182891.90584,3.4456851482391357,0.000446599908,1581.09166696
1574182891.9538918,3.493736982345581,0.000446480699,1580.66013038
1574182892.0018535,3.541698694229126,0.000446408987,1580.40053294
1574182892.049943,3.5897881984710693,0.000446601771,1581.09841102
1574182892.097926,3.6377711296081543,0.000430724584,1523.6229940800001
1574182892.1459126,3.685757875442505,0.000377688557,1331.63257634
1574182892.1939037,3.7337489128112793,0.000305361114,1069.8072326800002
1574182892.2418907,3.781735897064209,0.000225766562,781.67495444
1574182892.2898316,3.829676866531372,0.000147379003,497.91199085999995
1574182892.3378675,3.8777127265930176,8.0252998e-05,254.91585275999998
1574182892.3857234,3.9255685806274414,3.4687109e-05,89.96733458
1574182892.4338245,3.9736697673797607,1.0368414e-05,1.9336586800000006
1574182892.481824,4.021669149398804,-9.690411e-06,-70.67928782
1574182892.5297134,4.069558620452881,-1.39568e-05,-86.123616
1574182892.5777583,4.117603540420532,-1.3629906e-05,-84.94025972
1574182892.625688,4.1655333042144775,-1.3289042e-05,-83.70633204
1574182892.6737788,4.213624000549316,-1.3342127e-05,-83.89849974
1574182892.7216349,4.261480093002319,-1.3354234e-05,-83.94232708
1574182892.7697525,4.309597730636597,-1.3119541e-05,-83.09273842
1574182892.817738,4.357583284378052,-1.329463e-05,-83.7265606
1574182892.865729,4.405574321746826,-1.3031997e-05,-82.77582914
1574182892.9137096,4.45355486869812,-1.3110228e-05,-83.05902535999999
1574182892.9615698,4.501415014266968,-1.3123266e-05,-83.10622292
1574182893.010385,4.550230264663696,-9.59821e-06,-70.34552020000001
1574182893.0583725,4.598217725753784,2.0969659e-05,40.31016558000001
1574182893.1064103,4.6462554931640625,8.5594133e-05,274.25076146
1574182893.154479,4.694324254989624,0.000191688538,658.31250756
1574182893.2023394,4.742184638977051,0.000305469148,1070.19831576
1574182893.250451,4.790296316146851,0.000399540178,1410.73544436
1574182893.299504,4.839349269866943,0.000446816906,1581.8771997200001
1574182893.3475022,4.887347459793091,0.000448576175,1588.2457535
1574182893.3955026,4.93534779548645,0.00044822786,1586.9848532
1574182893.4434936,4.983338832855225,0.000448047183,1586.33080246
1574182893.4914713,5.031316518783569,0.000448067673,1586.40497626
1574182893.535565,5.0754101276397705,0.000447757542,1585.28230204
1574182893.5874543,5.127299547195435,0.000447928905,1585.9026361
1574182893.6354086,5.175253868103027,0.000447764061,1585.30590082
1574182893.6834285,5.223273754119873,0.000447651371,1584.8979630200001
1574182893.7314153,5.271260499954224,0.000447764993,1585.30927466
1574182893.7953644,5.335209608078003,0.000447535887,1584.47991094
1574182893.827392,5.367237329483032,0.000447686762,1585.02607844
1574182893.8753479,5.4151930809021,0.000447547995,1584.5237419
1574182893.923338,5.463183164596558,0.000447491184,1584.3180860800003
1574182893.97132,5.511165142059326,0.000447624363,1584.80019406
1574182894.0193398,5.559185028076172,0.000447380356,1583.91688872
1574182894.0673,5.607145309448242,0.000447605737,1584.73276794
1574182894.1153374,5.655182600021362,0.000447436236,1584.11917432
1574182894.1633372,5.7031824588775635,0.000447417609,1584.05174458
1574182894.211338,5.751183271408081,0.000446388498,1580.3263627600002
1574182894.2593377,5.799182891845703,0.000419176184,1481.8177860800001
1574182894.3072293,5.847074508666992,0.000358763151,1263.1226066200002
1574182894.3553371,5.895182371139526,0.000282300636,986.3283023199999
1574182894.4033387,5.943183898925781,0.000200846232,691.46335984
1574182894.4512222,5.991067409515381,0.000122992322,409.63220564
1574182894.4974682,6.037313461303711,6.1118975e-05,185.6506895
1574182894.547327,6.087172269821167,2.6137568e-05,59.01799616
1574182894.5953286,6.135173797607422,-6.61239e-07,-37.99368518
1574182894.6416833,6.181528568267822,-1.5621074e-05,-92.14828788
1574182894.689807,6.229652166366577,-1.65198e-05,-95.40167600000001
1574182894.7377052,6.277550458908081,-1.7478131e-05,-98.87083422
1574182894.7857778,6.325623035430908,-1.6058795e-05,-93.73283789999999
1574182894.8337646,6.373609781265259,-1.6532838e-05,-95.44887356
1574182894.8817527,6.421597957611084,-1.6875565e-05,-96.68954529999999
1574182894.9296088,6.469454050064087,-1.570303e-05,-92.44496860000001
1574182894.9775999,6.517445087432861,-1.7144717e-05,-97.66387553999999
1574182895.025637,6.565482139587402,-1.578778e-05,-92.7517636
1574182895.0737035,6.613548755645752,-1.6333535e-05,-94.72739670000001
1574182895.121588,6.661433219909668,-1.6666949e-05,-95.93435538
Time, Time Since Begin, V/V Raw Data, Force 
