Time, Time Since Begin, V/V Raw Data, Force 
1574191842.7687087,0.24406695365905762,0.000182490796,625.0166815199999
1574191842.8086119,0.2839701175689697,0.000182632357,625.5291323399999
1574191842.8486907,0.3240489959716797,0.000181987882,623.1961328399999
1574191842.8886783,0.36403656005859375,0.000181893818,622.85562116
1574191842.9366636,0.4120218753814697,0.000181901269,622.88259378
1574191842.9765277,0.4518859386444092,0.000181854703,622.71402486
1574191843.016644,0.4920022487640381,0.000181827694,622.61625228
1574191843.0566313,0.531989574432373,0.000181837007,622.64996534
1574191843.1044915,0.5798497200012207,0.000181938522,623.01744964
1574191843.144488,0.6198463439941406,0.000181936659,623.0107055799999
1574191843.184473,0.6598312854766846,0.000182019547,623.31076014
1574191843.2244675,0.6998257637023926,0.000182054937,623.43887194
1574191843.2724514,0.747809648513794,0.00018198695,623.192759
1574191843.312437,0.7877953052520752,0.000181932002,622.99384724
1574191843.3524275,0.8277857303619385,0.000181856565,622.7207653
1574191843.3924394,0.8677976131439209,0.000181835145,622.6432249
1574191843.464401,0.9397592544555664,0.000181862153,622.74099386
1574191843.480394,0.9557521343231201,0.000181873329,622.7814509799999
1574191843.5203831,0.9957413673400879,0.000194730237,669.32345794
1574191843.568374,1.0437321662902832,0.000221163034,765.0101830799999
1574191843.6083698,1.0837280750274658,0.000247732736,861.19250432
1574191843.648352,1.1237101554870605,0.000274154358,956.83877596
1574191843.6883407,1.1636989116668701,0.000300111249,1050.80272138
1574191843.7283833,1.2037415504455566,0.000325643457,1143.22931434
1574191843.7764373,1.2517955303192139,0.000350535847,1233.3397661400002
1574191843.8164203,1.291778564453125,0.000374875031,1321.44761222
1574191843.8563476,1.3317058086395264,0.000398881733,1408.3518734600002
1574191843.8963385,1.3716967105865479,0.000422310084,1493.1625040800002
1574191843.9442809,1.4196391105651855,0.000445248559,1576.1997835800003
1574191843.9842978,1.459656000137329,0.00046767015,1657.365943
1574191844.0242643,1.4996225833892822,0.000489395112,1736.0103054400001
1574191844.0722473,1.5476055145263672,0.000510831363,1813.60953406
1574191844.112243,1.5876011848449707,0.000531626865,1888.8892513
1574191844.1523578,1.627716064453125,0.000551954843,1962.47653166
1574191844.1922467,1.667604923248291,0.000571847893,2034.4893726600003
1574191844.2402046,1.7155628204345703,0.000591401011,2105.2716598200004
1574191844.2801986,1.7555568218231201,0.000611981377,2179.7725847399997
1574191844.3281908,1.80354905128479,0.000633571297,2257.92809514
1574191844.3761723,1.8515305519104004,0.000654688105,2334.3709401
1574191844.4241853,1.8995435237884521,0.000675490126,2409.67425612
1574191844.4721522,1.9475104808807373,0.000695666298,2482.71199876
1574191844.5201623,1.9955205917358398,0.000714872964,2552.2401296800003
1574191844.5681214,2.0434796810150146,0.000733532943,2619.78925366
1574191844.6161077,2.091465950012207,0.000751582906,2685.1301197200005
1574191844.664095,2.139453172683716,0.000769536942,2750.12373004
1574191844.7121534,2.187511682510376,0.000786268152,2810.69071024
1574191844.7601402,2.2354984283447266,0.000803071074,2871.51728788
1574191844.8081756,2.283533811569214,0.000819545239,2931.15376518
1574191844.8561802,2.331538438796997,0.000835147686,2987.63462332
1574191844.90408,2.3794381618499756,0.000850273296,3042.3893315200003
1574191844.9521492,2.4275074005126953,0.00086477492,3094.8852104000002
1574191845.0000155,2.4753737449645996,0.000878839754,3145.79990948
1574191845.0481286,2.523486852645874,0.000892766751,3196.21563862
1574191845.0983498,2.5737080574035645,0.000906038098,3244.25791476
1574191845.1463792,2.621737480163574,0.000919369049,3292.51595738
1574191845.194266,2.6696243286132812,0.000932333991,3339.44904742
1574191845.2423582,2.7177164554595947,0.000944382511,3383.0646898200002
1574191845.2902164,2.7655746936798096,0.000956682488,3427.59060656
1574191845.338333,2.8136911392211914,0.000968472101,3470.26900562
1574191845.3863208,2.8616790771484375,0.000979875214,3511.5482746800003
1574191845.434305,2.909663200378418,0.00099104736,3551.9914432
1574191845.4822943,2.9576525688171387,0.00100122299,3588.8272238
1574191845.5302837,3.0056419372558594,0.001011738554,3626.8935654800002
1574191845.5781546,3.0535128116607666,0.001021725126,3663.04495612
1574191845.6261299,3.1014881134033203,0.00103184022,3699.6615964000002
1574191845.6742327,3.1495909690856934,0.001041591167,3734.9600245399997
1574191845.72224,3.1975982189178467,0.001050786115,3768.2457363
1574191845.770122,3.2454802989959717,0.001059673727,3800.41889174
1574191845.8182101,3.2935683727264404,0.001068173908,3831.18954696
1574191845.8660705,3.341428756713867,0.001076906919,3862.8030467800004
1574191845.914062,3.3894202709198,0.001085426658,3893.64450196
1574191845.9620414,3.4373996257781982,0.001094412059,3926.1716535800006
1574191846.0101087,3.485466957092285,0.001102418639,3955.15547318
1574191846.0581515,3.5335097312927246,0.001109020784,3979.05523808
1574191846.1061354,3.581493616104126,0.001116550528,4006.3129113600003
1574191846.1541214,3.6294796466827393,0.00112508703,4037.2150486
1574191846.2020206,3.6773788928985596,0.001132723875,4064.8604275000002
1574191846.250103,3.72546124458313,0.001140340231,4092.43163622
1574191846.2980027,3.7733609676361084,0.001147414558,4118.040699959999
1574191846.346077,3.8214352130889893,0.001154287718,4142.92153916
1574191846.3939393,3.869297504425049,0.001160597429,4165.76269298
1574191846.4420476,3.917405843734741,0.001166714355,4187.9059651
1574191846.490042,3.965400218963623,0.001172215678,4207.820754359999
1574191846.5380313,4.013389587402344,0.001177625731,4227.40514622
1574191846.5858927,4.061250925064087,0.001183248125,4247.7582125
1574191846.6338727,4.109230995178223,0.001188102178,4265.32988436
1574191846.6819768,4.157335042953491,0.001193683594,4285.53461028
1574191846.729902,4.205260276794434,0.001197950915,4300.9823123
1574191846.7779596,4.253317832946777,0.001202087849,4315.95801338
1574191846.8258698,4.301228046417236,0.001207141206,4334.251165719999
1574191846.873846,4.3492043018341064,0.001208822243,4340.336519659999
1574191846.9219332,4.397291421890259,0.001208581962,4339.46670244
1574191846.9697986,4.445156812667847,0.001208405942,4338.82951004
1574191847.0179074,4.493265628814697,0.001208154485,4337.919235699999
1574191847.0658958,4.541254043579102,0.001208133996,4337.8450655199995
1574191847.113882,4.589240312576294,0.001203027554,4319.359745479999
1574191847.1618693,4.637227535247803,0.001165827736,4184.69640432
1574191847.2098565,4.6852147579193115,0.001101323403,3951.1907188600003
1574191847.2578466,4.7332048416137695,0.001017607749,3648.1400513800004
1574191847.3057318,4.781090021133423,0.000922375359,3303.3987995800003
1574191847.3538203,4.82917857170105,0.000818206929,2926.3090829800003
1574191847.4018168,4.8771750926971436,0.000707832165,2526.7524373
1574191847.4497967,4.9251549243927,0.000596565194,2123.96600228
1574191847.497653,4.973011255264282,0.00048952736,1736.4890432
1574191847.5457728,5.0211310386657715,0.000389982946,1376.1382645200001
1574191847.5937579,5.069116115570068,0.000298577361,1045.25004682
1574191847.641616,5.116974353790283,0.000218767673,756.33897626
1574191847.6897166,5.165074825286865,0.00015227031,515.6185222
1574191847.737722,5.213080167770386,9.9763274e-05,325.54305188
1574191847.7857075,5.261065721511841,6.211549e-05,189.25807380000003
1574191847.8336172,5.308975458145142,3.8210303e-05,102.72129686
1574191847.8816886,5.357046842575073,2.4394132e-05,52.70675784
1574191847.9295437,5.40490198135376,1.8613413e-05,31.78055505999999
1574191847.9775803,5.452938556671143,1.6164966e-05,22.917176919999996
1574191848.0256476,5.5010058879852295,1.6573817e-05,24.39721754
1574191848.0749192,5.550277471542358,1.6669743e-05,24.744469660000007
1574191848.122901,5.598259210586548,1.6790815e-05,25.182750299999995
1574191848.1708944,5.646252632141113,1.7011538e-05,25.981767559999994
1574191848.21888,5.694238185882568,1.6966835e-05,25.8199427
1574191848.266866,5.742224216461182,1.7133541e-05,26.423418419999997
1574191848.3148568,5.790215015411377,1.7100014e-05,26.30205068
1574191848.362844,5.838202238082886,1.7932616e-05,29.316069919999997
1574191848.4108331,5.886191368103027,4.5247376e-05,128.19550112
1574191848.4588213,5.9341795444488525,6.8873167e-05,213.72086454
1574191848.5068078,5.982166051864624,9.3825161e-05,304.04708281999996
1574191848.5547986,6.030156850814819,0.000119338743,396.40624965999996
1574191848.6027827,6.0781409740448,0.000146428123,494.46980526000004
1574191848.6506693,6.126027584075928,0.00017502252,597.9815224
1574191848.6987464,6.174104690551758,0.000203888863,702.4776840599999
1574191848.746746,6.22210431098938,0.000232999213,807.85715106
1574191848.7946107,6.2699689865112305,0.00026189629,912.4645697999999
1574191848.8427262,6.318084478378296,0.000290602446,1016.3808545200001
1574191848.8907108,6.366069078445435,0.000319039449,1119.32280538
1574191848.935643,6.411001205444336,0.000346518122,1218.79560164
1574191848.9849598,6.460318088531494,0.0003738245,1317.64469
1574191849.0328617,6.508219957351685,0.000400435179,1413.97534798
1574191849.0809355,6.556293725967407,0.000426613726,1508.74168812
1574191849.1287928,6.604151010513306,0.000452271663,1601.62342006
1574191849.176911,6.65226936340332,0.000476934016,1690.90113792
1574191849.2247663,6.700124502182007,0.000501256436,1778.9482983200003
1574191849.272757,6.748115301132202,0.000524872914,1864.4399486800003
1574191849.3207564,6.796114683151245,0.000547879376,1947.7233411200002
1574191849.3688633,6.844221591949463,0.000570476986,2029.52668932
1574191849.4168484,6.89220666885376,0.00059254095,2109.398239
1574191849.4648376,6.940195798873901,0.000614479184,2188.8146460800003
1574191849.5151527,6.990510940551758,0.000635820441,2266.0699964200003
1574191849.562753,7.038111209869385,0.000656648539,2341.46771118
1574191849.6076403,7.082998514175415,0.000676820055,2414.4885991
1574191849.655647,7.13100528717041,0.00069687143,2487.0745766
1574191849.703622,7.178980350494385,0.000716034323,2556.44424926
1574191849.7517362,7.227094411849976,0.000734610483,2623.6899484600003
1574191849.7997236,7.2750818729400635,0.00075276196,2689.3982952
1574191849.8477066,7.323064804077148,0.00077048596,2753.5591752
1574191849.8956978,7.371056079864502,0.0007873578,2814.635236
1574191849.943583,7.418941259384155,0.000803954899,2874.71673438
1574191849.991674,7.467032194137573,0.000819856301,2932.27980962
1574191850.0395286,7.514886856079102,0.000835747458,2989.80579796
1574191850.0875258,7.562884092330933,0.000851013698,3045.06958676
1574191850.1355374,7.61089563369751,0.000866142102,3099.8344092400002
1574191850.183627,7.658985137939453,0.000881467946,3155.3139645200004
1574191850.2315109,7.706869125366211,0.000895669684,3206.72425608
1574191850.2795146,7.754872798919678,0.000909360126,3256.28365612
1574191850.3275847,7.802942991256714,0.000923463143,3307.33657766
1574191850.3755765,7.850934743881226,0.000936468132,3354.41463784
1574191850.4235656,7.898923873901367,0.00094962772,3402.0523464000003
1574191850.4715526,7.946910858154297,0.00096207764,3447.1210568
1574191850.519541,7.994899272918701,0.000974179246,3490.92887052
1574191850.5675275,8.042885780334473,0.000985885039,3533.30384118
1574191850.6153839,8.090742111206055,0.000996465795,3571.6061779
1574191850.6634114,8.138769626617432,0.001007540151,3611.69534662
1574191850.71137,8.186728239059448,0.001017550007,3647.9310253400004
1574191850.7594752,8.234833478927612,0.001027781516,3684.96908792
1574191850.8073387,8.282696962356567,0.001037256792,3719.26958704
1574191850.8593383,8.334696531295776,0.001045915298,3750.61337876
1574191850.907341,8.382699251174927,0.001054687425,3782.3684785
1574191850.9513004,8.426658630371094,0.001062130556,3809.3126127200003
1574191850.999345,8.474703311920166,0.001069509424,3836.02411488
1574191851.0478933,8.5232515335083,0.00107670296,3862.0647152
1574191851.0958836,8.571241855621338,0.001084423624,3890.0135188800004
1574191851.143874,8.619232177734375,0.001092134975,3917.9286095
1574191851.191724,8.6670823097229,0.001098140143,3939.6673176599998
1574191851.23972,8.715078353881836,0.00110310968,3957.6570416
1574191851.2878213,8.763179540634155,0.001108812168,3978.30004816
1574191851.3358245,8.811182737350464,0.001114005223,3997.0989072599996
1574191851.3836956,8.85905385017395,0.001120550558,4020.79301996
1574191851.4327772,8.908135414123535,0.001125925221,4040.24930002
1574191851.4807634,8.956121683120728,0.001131257042,4059.55049204
1574191851.5286496,9.004007816314697,0.001136921346,4080.05527252
1574191851.576741,9.052099227905273,0.001140847802,4094.26904324
1574191851.6246006,9.099958896636963,0.001145021059,4109.376233579999
1574191851.6725867,9.147944927215576,0.001131360419,4059.92471678
1574191851.72071,9.196068286895752,0.001085454598,3893.7456447600002
1574191851.768558,9.243916273117065,0.001018726267,3652.18908654
1574191851.8165581,9.291916370391846,0.000938626938,3362.22951556
1574191851.8646646,9.340022802352905,0.000849620439,3040.02598918
1574191851.9125326,9.387890815734863,0.000753392465,2691.6807233
1574191851.9629235,9.438281774520874,0.000653744675,2330.9557234999997
1574191852.010911,9.486269235610962,0.000554049388,1970.05878456
1574191852.0588987,9.534256935119629,0.000459207222,1626.73014364
1574191852.1068892,9.582247495651245,0.000371482223,1309.16564726
1574191852.1547446,9.63010287284851,0.00029189419,1021.0569678
1574191852.2028604,9.678218603134155,0.000222750939,770.75839918
1574191852.2508502,9.726208448410034,0.000165104866,562.0796149199999
1574191852.2987113,9.774069547653198,0.000119546428,397.15806935999996
1574191852.346825,9.82218313217163,8.6403452e-05,277.18049623999997
1574191852.394681,9.870039224624634,6.4126216e-05,196.53690192000002
1574191852.4428005,9.918158769607544,5.155243e-05,151.0197966
1574191852.49067,9.966028213500977,4.6682544e-05,133.39080928
1574191852.538691,10.014049291610718,4.6736561e-05,133.58635082
1574191852.5866377,10.06199598312378,4.7128648e-05,135.00570576
1574191852.6346202,10.109978437423706,4.7112815e-05,134.9483903
1574191852.6827288,10.158087015151978,4.7315843e-05,135.68335166000003
1574191852.7307236,10.206081867218018,4.7456473e-05,136.19243226
1574191852.7786312,10.253989458084106,4.7293492e-05,135.60244104
1574191852.8267028,10.302061080932617,4.7725625e-05,137.1667625
1574191852.874693,10.350051164627075,4.7493726e-05,136.32728812000002
1574191852.922678,10.398036241531372,4.7598965e-05,136.7082533
1574191852.9706676,10.446025848388672,4.7752634e-05,137.26453508
1574191853.018654,10.494012355804443,4.7639944e-05,136.85659728
1574191853.066641,10.541999340057373,4.7893263e-05,137.77361206
1574191853.1145327,10.589890956878662,4.77219e-05,137.153278
1574191853.1626184,10.63797664642334,4.7845766e-05,137.60167292000003
1574191853.2106051,10.68596339225769,4.7967769e-05,138.04332378
1574191853.258595,10.73395323753357,4.7795475e-05,137.4196195
1574191853.3065834,10.781941652297974,4.8034824e-05,138.28606288
1574191853.3545704,10.829928636550903,4.7905371e-05,137.81744301999998
1574191853.4025576,10.877915859222412,4.7991984e-05,138.13098208
1574191853.450544,10.925902366638184,4.8016198e-05,138.21863676
1574191853.498535,10.973893165588379,6.3867308e-05,195.59965496000004
1574191853.5465198,11.021878004074097,9.2396513e-05,298.87537705999995
1574191853.594515,11.069873332977295,0.000118169002,392.17178724
1574191853.642386,11.117744207382202,0.000145408325,490.77813649999996
1574191853.6903536,11.165711879730225,0.000174091198,594.6101367599999
1574191853.7384698,11.213828086853027,0.000203237869,700.1210857799999
1574191853.786328,11.261686325073242,0.000232296064,805.3117516799999
1574191853.834325,11.309683322906494,0.000261343084,910.46196408
1574191853.8824353,11.35779356956482,0.000290336087,1015.4166349400001
1574191853.9302914,11.405649662017822,0.000319071114,1119.43743268
1574191853.9784107,11.453768968582153,0.000346675515,1219.3653643000002
1574191854.0264027,11.501760959625244,0.000374055468,1318.4807941600002
1574191854.0742846,11.54964280128479,0.000400772318,1415.1957911600002
1574191854.1222749,11.597633123397827,0.000426994637,1510.12058594
1574191854.1703713,11.645729541778564,0.000452609733,1602.84723346
1574191854.254214,11.729572296142578,0.000477431342,1692.70145804
1574191854.2702062,11.745564460754395,0.000501622446,1780.2732545200001
1574191854.314235,11.78959321975708,0.000525050797,1865.08388514
1574191854.3623137,11.837671995162964,0.000548024662,1948.2492764400001
1574191854.410302,11.885660171508789,0.00057043042,2029.3581204000002
1574191854.4582858,11.93364405632019,0.000592190772,2108.1305946400003
1574191854.5062776,11.981635808944702,0.000613771379,2186.25239198
1574191854.5541627,12.029520988464355,0.000635000877,2263.10317474
1574191854.6022532,12.077611446380615,0.000655829906,2338.50425972
1574191854.6501102,12.125468492507935,0.000675803982,2410.81041484
1574191854.6981485,12.173506736755371,0.000695899129,2483.55484698
1574191854.7462153,12.2215735912323,0.000715057366,2552.90766492
1574191854.7941315,12.269489765167236,0.000733527355,2619.7690251
1574191854.8403933,12.315751552581787,0.000751715153,2685.6088538599997
1574191854.8882952,12.363653421401978,0.000769173726,2748.80888812
1574191854.9362407,12.411598920822144,0.000786054879,2809.91866198
1574191854.9843578,12.459716081619263,0.000802733004,2870.29347448
1574191855.0322292,12.507587432861328,0.000819028355,2929.2826451
1574191855.0803316,12.555689811706543,0.000835236162,2987.95490644
1574191855.1283195,12.603677749633789,0.000850450248,3043.02989776
1574191855.1784458,12.653804063796997,0.00086556375,3097.740775
1574191855.2264485,12.701806783676147,0.000880636275,3152.3033155
1574191855.2745624,12.74992060661316,0.000895014964,3204.3541696800003
1574191855.3225496,12.797907829284668,0.000908733346,3254.01471252
1574191855.3705375,12.845895767211914,0.000922854058,3305.13168996
1574191855.418522,12.893880128860474,0.000935994089,3352.69860218
1574191855.466512,12.941870212554932,0.000949243084,3400.65996408
1574191855.5143995,12.989757776260376,0.000961778685,3446.0388397
1574191855.562494,13.03785228729248,0.000974057242,3490.48721604
1574191855.6103451,13.085703372955322,0.000985753722,3532.82847364
1574191855.658363,13.133721351623535,0.000996797346,3572.80639252
1574191855.7063508,13.181709051132202,0.001008206978,3614.10926036
1574191855.7543895,13.229747772216797,0.001018884592,3652.76222304
1574191855.8024247,13.277782917022705,0.001029697247,3691.9040341400005
1574191855.8503172,13.32567548751831,0.001039617695,3727.8160559000003
1574191855.898272,13.373630285263062,0.001049026847,3761.8771861400005
1574191855.9462614,13.421619653701782,0.001058556139,3796.3732231800004
1574191855.9942474,13.469605684280396,0.001067138277,3827.44056274
1574191856.0422769,13.517635107040405,0.001075613312,3858.12018944
1574191856.0903473,13.56570553779602,0.001084860414,3891.5946986800004
1574191856.1382992,13.613657474517822,0.001094058156,3924.89052472
1574191856.1863296,13.661687850952148,0.00110175088,3952.7381856
1574191856.2343156,13.709673881530762,0.00110917259,3979.6047758000004
1574191856.28218,13.757538318634033,0.001116776839,4007.13215718
1574191856.3302941,13.805652379989624,0.001125086099,4037.21167838
1574191856.375438,13.850796222686768,0.001132338308,4063.46467496
1574191856.4272935,13.9026517868042,0.001140169799,4091.8146723799996
1574191856.4713166,13.946674823760986,0.001146764494,4115.68746828
1574191856.5232677,13.998625993728638,0.001153379679,4139.63443798
1574191856.5712616,14.046619892120361,0.001159869134,4163.126265079999
1574191856.6192453,14.094603538513184,0.001165868714,4184.844744679999
1574191856.6672318,14.142590045928955,0.001170586795,4201.9241979
1574191856.715228,14.19058632850647,0.001175619662,4220.14317644
1574191856.7632077,14.238565921783447,0.001181310974,4240.74572588
