Time, Time Since Begin, V/V Raw Data, Force 
1574185076.5981302,0.23591065406799316,0.000166059,565.53358
1574185076.8540735,0.4918539524078369,0.000165970065,565.2116353
1574185076.9021828,0.5399632453918457,0.000166057609,565.52854458
1574185076.942071,0.5798513889312744,0.000166098587,565.67688494
1574185076.982166,0.6199464797973633,0.000166126527,565.77802774
1574185077.0220516,0.6598320007324219,0.000166091137,565.6499159399999
1574185077.0700169,0.7077972888946533,0.000166029669,565.42740178
1574185077.1099994,0.7477798461914062,0.000165912323,565.00260926
1574185077.1500063,0.7877867221832275,0.000170876272,582.97210464
1574185077.1899972,0.827777624130249,0.000174201094,595.00796028
1574185077.237972,0.8757524490356445,0.000174238347,595.14281614
1574185077.2779567,0.9157371520996094,0.000174276531,595.28104222
1574185077.3180447,0.9558250904083252,0.000174348243,595.54063966
1574185077.3579376,0.9957180023193359,0.000174378976,595.65189312
1574185077.4060557,1.0438361167907715,0.000174340792,595.51366704
1574185077.446051,1.0838313102722168,0.00017434638,595.5338955999999
1574185077.485904,1.1236844062805176,0.000174265355,595.2405851
1574185077.5260258,1.1638062000274658,0.000174225308,595.09561496
1574185077.5740132,1.2117936611175537,0.000174197368,594.99447216
1574185077.6138709,1.2516512870788574,0.000174183398,594.9439007599999
1574185077.6538675,1.2916479110717773,0.000174190849,594.9708733800001
1574185077.6938813,1.3316617012023926,0.000174289569,595.32823978
1574185077.7419803,1.3797607421875,0.000174298882,595.36195284
1574185077.7818294,1.419609785079956,0.000174317509,595.42938258
1574185077.821828,1.4596083164215088,0.000174362212,595.59120744
1574185077.8619387,1.4997191429138184,0.000174313784,595.41589808
1574185077.909796,1.5475764274597168,0.000174254179,595.20012798
1574185077.9498205,1.5876009464263916,0.000174190849,594.9708733800001
1574185077.989914,1.6276943683624268,0.000174193643,594.98098766
1574185078.0298984,1.6676788330078125,0.000174124725,594.7315045
1574185078.0778842,1.7156646251678467,0.00017419178,594.9742436
1574185078.1177444,1.7555248737335205,0.000174218789,595.07201618
1574185078.15773,1.7955105304718018,0.000174266286,595.24395532
1574185078.1977541,1.8355345726013184,0.000174321234,595.4428670799999
1574185078.2458427,1.8836231231689453,0.000174336135,595.4968087
1574185078.2857308,1.923511266708374,0.000174325891,595.45972542
1574185078.3257196,1.9635000228881836,0.000174217857,595.06864234
1574185078.3738048,2.011585235595703,0.000174207613,595.03155906
1574185078.4216719,2.0594522953033447,0.000174319372,595.4361266399999
1574185078.469685,2.1074655055999756,0.000174099579,594.64047598
1574185078.5176942,2.1554746627807617,0.000174159184,594.85624608
1574185078.565717,2.2034974098205566,0.000167289749,569.98889138
1574185078.6137502,2.251530647277832,0.000165193342,562.3998980399999
1574185078.6617372,2.2995176315307617,0.000165387057,563.10114634
1574185078.7096224,2.347402811050415,0.000165186822,562.37629564
1574185078.7577136,2.395493984222412,0.000165365636,563.02360232
1574185078.8056967,2.443477153778076,0.00016524829,562.5988098
1574185078.8536901,2.4914705753326416,0.000165199861,562.42349682
1574185078.9029627,2.540743112564087,0.000165378675,563.0708035
1574185078.9508471,2.588627576828003,0.000165158883,562.27515646
1574185078.9988148,2.6365952491760254,0.00016531907,562.8550334
1574185079.0473619,2.6851422786712646,0.000165240839,562.57183718
1574185079.0931542,2.7309346199035645,0.00016520638,562.4470955999999
1574185079.1411388,2.778919219970703,0.000165383331,563.08765822
1574185079.1891184,2.8268988132476807,0.000165054575,561.8975614999999
1574185079.2372394,2.8750197887420654,0.000165401027,563.15171774
1574185079.2851236,2.9229040145874023,0.000165266916,562.6662359200001
1574185079.3332098,2.9709901809692383,0.000165006146,561.72224852
1574185079.3812015,3.01898193359375,0.000165553764,563.7046256799999
1574185079.429058,3.066838502883911,0.000164881349,561.27048338
1574185079.4771733,3.1149537563323975,0.000165442936,563.30342832
1574185079.5251653,3.1629457473754883,0.000165299512,562.78423344
1574185079.5731485,3.2109289169311523,0.000165019184,561.76944608
1574185079.6211362,3.2589166164398193,0.000165622681,563.95410522
1574185079.668997,3.3067774772644043,0.000164848752,561.1524822399999
1574185079.716992,3.3547723293304443,0.000165436417,563.2798295399999
1574185079.765002,3.402782440185547,0.000165279023,562.71006326
1574185079.8129663,3.450746774673462,0.000164965168,561.57390816
1574185079.860977,3.4987573623657227,0.000165642239,564.0249051799999
1574185079.908936,3.5467164516448975,0.000164858997,561.1895691399999
1574185079.9569225,3.594702959060669,0.000165475532,563.42142584
1574185080.0049121,3.6426925659179688,0.000165266916,562.6662359200001
1574185080.0530384,3.6908187866210938,0.000164941885,561.4896237
1574185080.100886,3.738666534423828,0.000165651552,564.05861824
1574185080.148882,3.7866623401641846,0.000164824538,561.06482756
1574185080.196998,3.834778308868408,0.000165444799,563.31017238
1574185080.2449846,3.882765054702759,0.000165306963,562.8112060599999
1574185080.2929697,3.9307501316070557,0.000164964236,561.57053432
1574185080.3408716,3.978652000427246,0.000165656209,564.07547658
1574185080.3889441,4.026724576950073,0.000164849684,561.15585608
1574185080.4394658,4.077246189117432,0.000165423378,563.2326283599999
1574185080.4870896,4.12487006187439,0.000165303238,562.79772156
1574185080.5349734,4.172753810882568,0.000165263191,562.65275142
1574185080.5830615,4.220841884613037,0.000165215693,562.48080866
1574185080.6309497,4.268730163574219,0.000165247358,562.5954359599999
1574185080.6790392,4.316819667816162,0.000165224075,562.5111515
1574185080.727027,4.364807367324829,0.000165235251,562.55160862
1574185080.7750149,4.412795305252075,0.000165282749,562.72355138
1574185080.8230028,4.460783243179321,0.000165239908,562.56846696
1574185080.870993,4.508773326873779,0.000165245496,562.58869552
1574185080.9188554,4.556635856628418,0.000165211968,562.46732416
1574185080.9668646,4.604645013809204,0.000165225938,562.51789556
1574185081.0149536,4.652734041213989,0.000164879486,561.26373932
1574185081.0629373,4.7007176876068115,0.000165652484,564.06199208
1574185081.1108046,4.748584985733032,0.000164850615,561.1592263
1574185081.158783,4.796563386917114,0.000165440142,563.2933140399999
1574185081.2038891,4.84166955947876,0.000165286474,562.73703588
1574185081.2519581,4.8897385597229,0.000164858997,561.1895691399999
1574185081.301013,4.938793420791626,0.00016567111,564.1294181999999
1574185081.3491297,4.986910104751587,0.00016080495,546.513919
1574185081.3970134,5.034793853759766,0.000131851994,441.70421828
1574185081.4449751,5.0827555656433105,9.9966303e-05,326.27801686
1574185081.4930887,5.130869150161743,7.0886686e-05,221.00980331999997
1574185081.541079,5.17885947227478,4.8604794e-05,140.34935428000003
1574185081.5890622,5.226842641830444,3.6197715e-05,95.43572830000002
1574185081.6370552,5.274835586547852,3.4301542e-05,88.57158203999998
1574185081.6889105,5.326690912246704,3.4523197e-05,89.37397314
1574185081.7329216,5.370702028274536,3.4508295e-05,89.32002790000001
1574185081.7810187,5.418799161911011,3.4527853e-05,89.39082786
1574185081.8290055,5.466785907745361,3.4549274e-05,89.46837188
1574185081.876988,5.514768362045288,3.4527853e-05,89.39082786
1574185081.9248517,5.562632083892822,3.4555793e-05,89.49197065999999
1574185081.9729702,5.610750675201416,3.4204684e-05,88.22095607999998
1574185082.020856,5.6586363315582275,3.4989789e-05,91.06303617999998
1574185082.0688128,5.70659327507019,3.4128316e-05,87.94450391999999
1574185082.1174917,5.755272150039673,3.4706667e-05,90.03813453999999
1574185082.1656117,5.803392171859741,3.4634955e-05,89.7785371
1574185082.2134688,5.8512492179870605,3.4122728e-05,87.92427536
1574185082.2614715,5.899251937866211,3.4946017e-05,90.90458154000001
1574185082.3094394,5.9472198486328125,3.4119003e-05,87.91079085999999
1574185082.3574467,5.995227098464966,3.4710392e-05,90.05161903999999
1574185082.4055455,6.043325901031494,3.4650788e-05,89.83585255999998
1574185082.453451,6.091231346130371,3.4182332e-05,88.14004184000001
1574185082.5015273,6.139307737350464,3.495533e-05,90.9382946
1574185082.549478,6.18725848197937,3.4101307e-05,87.84673133999999
1574185082.5985327,6.236313104629517,3.4702942e-05,90.02465003999998
1574185082.6476083,6.285388708114624,3.4621917e-05,89.73133954
1574185082.6955957,6.333376169204712,3.4190714e-05,88.17038468000001
1574185082.7435834,6.381363868713379,3.4982339e-05,91.03606718
1574185082.7898643,6.427644729614258,3.4176745e-05,88.11981689999999
1574185082.8377287,6.475509166717529,3.4679659e-05,89.94036557999999
1574185082.885796,6.523576498031616,3.4593046e-05,89.62682651999998
1574185082.9338272,6.57160758972168,3.4185126e-05,88.15015611999999
1574185082.9830587,6.6208391189575195,3.4970231e-05,90.99223622
1574185083.0310912,6.668871641159058,3.4204684e-05,88.22095607999998
1574185083.078976,6.716756343841553,3.4706667e-05,90.03813453999999
1574185083.1269627,6.764743089675903,3.4622848e-05,89.73470976000002
1574185083.1750364,6.812816858291626,3.415253e-05,88.0321586
1574185083.2229552,6.860735654830933,3.4992583e-05,91.07315046
1574185083.2710264,6.908806800842285,3.4213066e-05,88.25129892000001
1574185083.3188858,6.9566662311553955,3.463123e-05,89.76505259999999
1574185083.3670173,7.004797697067261,3.4719706e-05,90.08533572000002
1574185083.414995,7.0527753829956055,3.4213997e-05,88.25466914
1574185083.4629817,7.100762128829956,3.5069883e-05,91.35297646000001
1574185083.5109687,7.148749113082886,5.4419972e-05,161.40029864000002
1574185083.5589519,7.19673228263855,7.3430128e-05,230.21706335999997
1574185083.606944,7.24472451210022,8.8455155e-05,284.6076611
1574185083.6549325,7.292712926864624,0.000102256425,334.56825849999996
1574185083.7027884,7.340568780899048,0.00011664629,386.6595698
1574185083.750909,7.3886895179748535,0.000127752312,426.86336943999993
1574185083.798774,7.436554431915283,0.000138627365,466.2310613
1574185083.8468785,7.48465895652771,0.000148365274,501.48229188000005
1574185083.894791,7.532571315765381,0.000156459399,530.7830243799999
1574185083.9427567,7.5805370807647705,0.000162927434,554.19731108
1574185083.9907212,7.628501653671265,0.000168761238,575.3156815599999
1574185084.0387313,7.676511764526367,0.000175475143,599.6200176599999
1574185084.0867212,7.724501609802246,0.000175661407,600.29429334
1574185084.1346855,7.772465944290161,0.00017510727,598.2883174
1574185084.1826768,7.820457220077515,0.000175887719,601.11354278
1574185084.2307217,7.868502140045166,0.000175102614,598.2714626799999
1574185084.2787735,7.916553974151611,0.00017553661,599.8425282000001
1574185084.3267612,7.964541673660278,0.000175519846,599.7818425199999
1574185084.374749,8.012529373168945,0.000175020657,597.97477834
1574185084.4226928,8.060473203659058,0.000175816938,600.85731556
1574185084.4705932,8.108373641967773,0.000174206682,595.02818884
1574185084.518627,8.156407356262207,0.000165652484,564.06199208
1574185084.5667012,8.204481601715088,0.000159132294,540.45890428
1574185084.6146846,8.252465009689331,0.000152329914,515.83428868
1574185084.6625733,8.300353765487671,0.000145688653,491.79292386
1574185084.710658,8.348438501358032,0.000143013895,482.1102999
1574185084.7586515,8.396431922912598,0.000143450685,483.69147969999995
1574185084.8066344,8.444414854049683,0.000143479556,483.79599271999996
1574185084.8546271,8.49240756034851,0.000142997131,482.04961421999997
1574185084.9026163,8.540396690368652,0.000143786892,484.90854904
1574185084.9505997,8.588380098342896,0.000143048353,482.23503786000003
1574185084.9985893,8.636369705200195,0.000143471174,483.76564987999996
1574185085.0464978,8.6842782497406,0.000143492594,483.84319028000004
1574185085.094434,8.732214450836182,0.000142990611,482.02601182
1574185085.1424224,8.780202865600586,0.00014377851,484.8782062
1574185085.19054,8.828320503234863,0.000143015757,482.11704034
1574185085.238532,8.876312494277954,0.000143476762,483.78587844000003
1574185085.2863896,8.924170017242432,0.000143480487,483.79936294000004
1574185085.3345065,8.972286939620972,0.00014298968,482.02264159999993
1574185085.3823907,9.020171165466309,0.000143752433,484.78380746000005
1574185085.4304779,9.068258285522461,0.000142994337,482.0394999399999
1574185085.4784687,9.116249084472656,0.000143478625,483.7926225
1574185085.5264542,9.164234638214111,0.000143429264,483.61393567999994
1574185085.5744028,9.212183237075806,0.000142871402,481.59447523999995
1574185085.6223028,9.260083198547363,0.000143807381,484.9827192199999
1574185085.6703186,9.308099031448364,0.000142998993,482.0563546599999
1574185085.7183123,9.356092691421509,0.000143508427,483.90050573999997
1574185085.766309,9.404089450836182,0.000143490732,483.83644984
1574185085.8143866,9.45216703414917,0.000142875127,481.60795973999996
1574185085.8623672,9.500147581100464,0.000143817626,485.0198061199999
1574185085.9103594,9.548139810562134,0.000143028796,482.16424152
1574185085.9583483,9.596128702163696,0.000143462792,483.73530703999995
1574185086.0062177,9.643998146057129,0.000143478625,483.7926225
1574185086.0543208,9.692101240158081,0.000143038109,482.19795458
1574185086.100467,9.738247394561768,0.000143753365,484.78718129999993
1574185086.1484547,9.786235094070435,0.000143050216,482.24178192
1574185086.196495,9.834275484085083,0.000143506564,483.89376168
1574185086.244559,9.882339477539062,0.000143516809,483.93084858
1574185086.2925494,9.9303297996521,0.000142828561,481.43939081999997
1574185086.3405359,9.978316307067871,0.000143969432,485.56934384
1574185086.388525,10.026305437088013,0.000142871402,481.59447523999995
1574185086.436382,10.074162483215332,0.00014343299,483.6274238
1574185086.4845028,10.122283220291138,0.000143543817,484.02861754
1574185086.5323875,10.170167922973633,0.000142796896,481.3247635199999
1574185086.5804775,10.218257904052734,0.000143975951,485.59294262000003
1574185086.6283495,10.266129970550537,0.000142821111,481.41242181999996
1574185086.6763537,10.314134120941162,0.000143494457,483.84993434
1574185086.7243075,10.362087965011597,0.000143416226,483.56673811999997
1574185086.7723377,10.410118103027344,0.000142743811,481.13259582
1574185086.820416,10.45819640159607,0.000143988058,485.6367699599999
1574185086.8683014,10.506081819534302,0.000143079087,482.34629494
1574185086.9163928,10.554173231124878,0.000143371522,483.4049096399999
1574185086.9643798,10.602160215377808,0.00014341902,483.5768523999999
1574185087.0132787,10.6510591506958,0.000143181533,482.71714946
1574185087.0633068,10.701087236404419,0.000143547542,484.04210204000003
1574185087.1112292,10.749009609222412,0.000143199228,482.78120535999994
1574185087.159155,10.796935319900513,0.00014341902,483.5768523999999
1574185087.207203,10.844983339309692,0.000143389218,483.46896916000003
1574185087.2533648,10.8911452293396,0.000143198296,482.77783151999995
1574185087.3012795,10.939059972763062,0.000143516809,483.93084858
1574185087.3493996,10.98717999458313,0.000143206678,482.80817435999995
1574185087.397386,11.035166501998901,0.000143382698,483.44536675999996
1574185087.44537,11.083150386810303,0.000143378042,483.42851204
1574185087.49542,11.133200407028198,0.000143202022,482.79131964
1574185087.543424,11.181204319000244,0.000143497251,483.86004861999993
1574185087.589705,11.227485418319702,0.000143176876,482.70029112
1574185087.6376941,11.275474548339844,0.000143373385,483.4116537
1574185087.6855793,11.323359727859497,0.000143405981,483.52965122
1574185087.7336702,11.371450662612915,0.00014320761,482.81154819999995
1574185087.7816546,11.419435024261475,0.00014348235,483.806107
1574185087.829543,11.467323541641235,0.000143191777,482.7542327399999
1574185087.8776162,11.51539659500122,0.000143385492,483.45548104
1574185087.9275389,11.565319299697876,0.000143350102,483.32736923999994
1574185087.9754946,11.613275051116943,0.000143227167,482.8823445400001
1574185088.0235224,11.6613028049469,0.000143516809,483.93084858
1574185088.0687513,11.706531763076782,0.000143202953,482.79468985999995
1574185088.116607,11.754387378692627,0.000143360347,483.36445614
1574185088.1646247,11.80240511894226,0.000143446028,483.67462135999995
1574185088.2126117,11.85039210319519,0.000142969191,481.94847142000003
1574185088.2607017,11.898482084274292,0.00014373567,484.7231254000001
1574185088.308678,11.946458339691162,0.000143034384,482.18447008
1574185088.3566303,11.994410753250122,0.000143331476,483.25994312
1574185088.4046645,12.042444944381714,0.000143478625,483.7926225
1574185088.4548507,12.092631101608276,0.000142992474,482.03275587999997
1574185088.5029204,12.140700817108154,0.000143682584,484.53095408
1574185088.5508084,12.188588857650757,0.000143074431,482.3294402199999
1574185088.598773,12.236553430557251,0.000143344514,483.30714068
1574185088.6467838,12.28456425666809,0.000143509358,483.90387595999994
1574185088.6948738,12.332654237747192,0.000142949633,481.87767146
1574185088.7427385,12.380518913269043,0.000143680722,484.52421363999997
1574185088.790849,12.428629398345947,0.000143029727,482.16761174
1574185088.8388364,12.476616859436035,0.00014337711,483.4251382
1574185088.886826,12.524606466293335,0.000143577345,484.1499888999999
1574185088.9348118,12.57259225845337,0.00014991127,507.0787974
1574185088.9827137,12.62049412727356,0.000154926442,525.23372004
1574185089.0307894,12.668569803237915,0.000158527866,538.27087492
1574185089.0787585,12.716538906097412,0.000165562145,563.7349649
1574185089.1267638,12.764544248580933,0.000173253939,591.5792591799999
1574185089.1747496,12.812530040740967,0.000173667446,593.0761545199999
1574185089.222737,12.860517501831055,0.00017448049,596.0193737999999
1574185089.2706275,12.908407926559448,0.000173715875,593.2514675
1574185089.3187153,12.956495761871338,0.000174012966,594.32693692
1574185089.3665724,13.004352807998657,0.000174186192,594.95401504
1574185089.41469,13.052470445632935,0.000173612498,592.87724276
1574185089.4626796,13.100460052490234,0.000174416229,595.78674898
1574185089.5106657,13.148446083068848,0.000173701905,593.2008961
1574185089.5585206,13.196300983428955,0.000174023211,594.36402382
1574185089.6066377,13.244418144226074,0.000174165703,594.87984486
1574185089.6545863,13.292366743087769,0.000173636712,592.96489744
1574185089.7026129,13.340393304824829,0.000174370594,595.6215502800001
1574185089.7506065,13.388386964797974,0.000173681416,593.12672592
1574185089.7985942,13.43637466430664,0.00017399434,594.2595108
1574185089.8465817,13.484362125396729,0.000174146146,594.80904852
1574185089.8945637,13.532344102859497,0.000173558481,592.68170122
1574185089.9425557,13.580336093902588,0.000174393877,595.70583474
1574185089.990544,13.628324508666992,0.00017368421,593.1368401999999
1574185090.0384007,13.676181077957153,0.000169395469,577.61159778
1574185090.087512,13.725292444229126,0.000164029188,558.18566056
1574185090.1354048,13.77318525314331,0.000164031982,558.19577484
1574185090.1834176,13.821197986602783,0.000164021738,558.1586915600001
1574185090.231478,13.869258403778076,0.000164010562,558.1182344399999
1574185090.2794638,13.91724419593811,0.000164057128,558.28680336
1574185090.3274524,13.965232849121094,0.000164025463,558.17217606
1574185090.375444,14.013224363327026,0.000164061785,558.3036616999999
1574185090.4234378,14.06121826171875,0.000164076686,558.35760332
1574185090.4714184,14.109198808670044,0.000164015219,558.13509278
1574185090.5194054,14.157185792922974,0.000164034776,558.20588912
1574185090.5672681,14.205048561096191,0.000164062716,558.30703192
1574185090.6152518,14.253032207489014,0.000164005905,558.1013760999999
1574185090.663247,14.301027536392212,0.000164020807,558.15532134
1574185090.7113616,14.349142074584961,0.000164022669,558.16206178
1574185090.759349,14.397129535675049,0.000164038502,558.21937724
1574185090.8073342,14.445114612579346,0.000163999386,558.0777773199999
