Time, Time Since Begin, V/V Raw Data, Force 
1574187973.2260776,0.2840464115142822,4.7643669e-05,136.87008178000002
1574187973.2660697,0.3240385055541992,4.7748908e-05,137.25104696000002
1574187973.3140562,0.3720250129699707,4.7828071e-05,137.53761702
1574187973.3510916,0.4090604782104492,4.7803856e-05,137.44995871999998
1574187973.3911185,0.44908738136291504,4.7745183e-05,137.23756246
1574187973.4311092,0.4890780448913574,4.7639012e-05,136.85322344000002
1574187973.4790778,0.5370466709136963,4.7503971e-05,136.36437502
1574187973.5190883,0.5770571231842041,4.7392212e-05,135.95980744000002
1574187973.5630467,0.6210155487060547,4.7401525e-05,135.9935205
1574187973.5990336,0.6570024490356445,4.7435984e-05,136.11826208000002
1574187973.6470406,0.7050094604492188,4.7562644e-05,136.57677128
1574187973.6870344,0.7450032234191895,4.7776848e-05,137.35218976
1574187973.7271416,0.7851104736328125,4.788395e-05,137.739899
1574187973.767126,0.8250949382781982,4.7859736e-05,137.65224432
1574187973.8151133,0.873082160949707,4.7798268e-05,137.42973016
1574187973.855101,0.9130699634552002,4.765857e-05,136.9240234
1574187973.8989658,0.9569346904754639,4.7471374e-05,136.24637388000002
1574187973.9349508,0.9929196834564209,4.7382899e-05,135.92609438
1574187973.9830687,1.0410375595092773,4.7416426e-05,136.04746212
1574187974.0269265,1.084895372390747,4.7517009e-05,136.41157257999998
1574187974.0629234,1.1208922863006592,4.7614798e-05,136.76556876
1574187974.1030428,1.1610116958618164,4.7797337e-05,137.42635994
1574187974.1548944,1.2128632068634033,4.7851354e-05,137.62190148000002
1574187974.1948836,1.252852439880371,4.78765e-05,137.71293
1574187974.2348769,1.2928457260131836,4.7794543e-05,137.41624566000002
1574187974.2708716,1.3288404941558838,4.7683716e-05,137.01505192000002
1574187974.3228507,1.38081955909729,4.7437847e-05,136.12500613999998
1574187974.3628426,1.420811414718628,4.7420152e-05,136.06095024
1574187974.3988357,1.4568045139312744,4.7403388e-05,136.00026456
1574187974.4428246,1.50079345703125,4.7476031e-05,136.26323222000002
1574187974.488096,1.546064853668213,4.7681853e-05,137.00830786
1574187974.5280955,1.586064338684082,4.7809444e-05,137.47018728
1574187974.567992,1.6259608268737793,4.7868118e-05,137.68258716
1574187974.6079655,1.6659343242645264,4.7850423e-05,137.61853126
1574187974.6560543,1.7140231132507324,4.7829933e-05,137.54435746
1574187974.6960406,1.754009485244751,4.7547743e-05,136.52282966
1574187974.744031,1.801999807357788,4.7542155e-05,136.5026011
1574187974.7920194,1.8499882221221924,4.7822483e-05,137.51738846
1574187974.8398848,1.8978536128997803,4.7384761e-05,135.93283482
1574187974.887867,1.945835828781128,4.7878362e-05,137.71967044000002
1574187974.9358585,1.9938273429870605,4.7532842e-05,136.46888804000002
1574187974.9839745,2.041943311691284,4.7562644e-05,136.57677128
1574187975.0318286,2.0897974967956543,4.7842972e-05,137.59155864000002
1574187975.0799463,2.1379151344299316,4.7409907e-05,136.02386334000002
1574187975.1278467,2.1858155727386475,4.7847629e-05,137.60841698
1574187975.1759205,2.23388934135437,4.755985e-05,136.56665700000002
1574187975.2238216,2.2817904949188232,4.7588721e-05,136.67117002
1574187975.2718966,2.3298654556274414,4.7829002e-05,137.54098724
1574187975.3198824,2.3778512477874756,4.740525e-05,136.00700500000002
1574187975.3677435,2.4257123470306396,4.7850423e-05,137.61853126
1574187975.4157574,2.473726272583008,4.7542155e-05,136.5026011
1574187975.4637678,2.5217366218566895,4.7627836e-05,136.81276631999998
1574187975.5118272,2.569796085357666,4.7859736e-05,137.65224432
1574187975.5598202,2.6177890300750732,4.7424808e-05,136.07780496
1574187975.6276734,2.6856422424316406,4.7877431e-05,137.71630022000002
1574187975.6556637,2.713632583618164,4.7528185e-05,136.45202970000003
1574187975.7037046,2.7616734504699707,4.7627836e-05,136.81276631999998
1574187975.7516384,2.8096072673797607,4.7807582e-05,137.46344684
1574187975.7996256,2.8575944900512695,4.7415495e-05,136.0440919
1574187975.8476198,2.9055886268615723,4.7874637e-05,137.70618594
1574187975.8956187,2.953587532043457,4.7543086e-05,136.50597132
1574187975.9435885,3.0015573501586914,4.7639944e-05,136.85659728
1574187975.9917107,3.0496795177459717,4.7857873e-05,137.64550026
1574187976.0396838,3.0976526737213135,4.7436915e-05,136.12163230000002
1574187976.0876858,3.1456546783447266,4.7874637e-05,137.70618594
1574187976.1356695,3.193638324737549,4.7511421e-05,136.39134402
1574187976.1835668,3.2415356636047363,4.7597103e-05,136.70151286
1574187976.2316504,3.289619207382202,4.7822483e-05,137.51738846
1574187976.279638,3.337606906890869,4.7394074e-05,135.96654788
1574187976.3276227,3.385591506958008,4.7852285e-05,137.6252717
1574187976.3754885,3.433457374572754,4.7513284e-05,136.39808808
1574187976.423484,3.4814529418945312,4.7645532e-05,136.87682584
1574187976.4715967,3.5295655727386475,4.7825277e-05,137.52750274000002
1574187976.5218606,3.579829454421997,4.740525e-05,136.00700500000002
1574187976.5697215,3.627690315246582,4.7960319e-05,138.01635478
1574187976.6177034,3.6756722927093506,4.7500245e-05,136.3508869
1574187976.6656923,3.723661184310913,4.7653913e-05,136.90716505999998
1574187976.7138104,3.7717792987823486,4.7827139e-05,137.53424318
1574187976.7617939,3.819762706756592,4.7327019e-05,135.72380878
1574187976.8097842,3.867753028869629,4.7991052e-05,138.12760824
1574187976.857669,3.915637969970703,4.7439709e-05,136.13174658
1574187976.9056268,3.9635956287384033,4.7655776e-05,136.91390912
1574187976.9536138,4.011582612991333,4.7934242e-05,137.92195604
1574187977.0016017,4.059570550918579,4.7344714e-05,135.78786468
1574187977.04959,4.107558965682983,4.8054382e-05,138.35686284000002
1574187977.0975776,4.155546426773071,4.7426671e-05,136.08454902
1574187977.1455646,4.203533411026001,4.7616661e-05,136.77231282
1574187977.1935725,4.251541376113892,4.7962181e-05,138.02309522000002
1574187977.2415402,4.299509048461914,8.7218359e-05,280.13045958
1574187977.2895296,4.347498416900635,0.0002476722,860.9733640000001
1574187977.337515,4.39548397064209,0.000428039581,1513.9032832200003
1574187977.3855028,4.443471670150757,0.000595630147,2120.58113214
1574187977.4334903,4.491459131240845,0.000741232187,2647.66051694
1574187977.481481,4.53944993019104,0.00086895749,3110.0261138
1574187977.5294657,4.587434530258179,0.000977647491,3503.4839174200006
1574187977.577454,4.635422945022583,0.001065564342,3821.74291804
1574187977.6254413,4.683410167694092,0.001144344918,4106.9286031599995
1574187977.6734307,4.7313995361328125,0.001213745214,4358.15767468
1574187977.7214184,4.7793872356414795,0.001275101677,4580.2680707399995
1574187977.769404,4.827372789382935,0.001334253699,4794.398390379999
1574187977.8173947,4.87536358833313,0.001385651529,4980.458534979999
1574187977.86538,4.923348903656006,0.001436512917,5164.57675954
1574187977.9133666,4.971335411071777,0.001485227607,5340.92393734
1574187977.9613574,5.019326210021973,0.001525149681,5485.44184522
1574187978.009362,5.067330837249756,0.00155524537,5594.3882394
1574187978.0613313,5.119300127029419,0.001565086655,5630.0136911
1574187978.1053197,5.163288593292236,0.001563168131,5623.06863422
1574187978.1533074,5.211276292800903,0.0015618084,5618.146408
1574187978.2014265,5.259395360946655,0.001560147852,5612.13522424
1574187978.249414,5.307382822036743,0.001560068689,5611.848654179999
1574187978.2973585,5.355327367782593,0.001558683813,5606.835403059999
1574187978.3452575,5.403226375579834,0.001558443531,5605.965582219999
1574187978.393247,5.451215744018555,0.001557989046,5604.32034652
1574187978.4413745,5.499343395233154,0.001556994393,5600.71970266
1574187978.4893537,5.547322511672974,0.001557311974,5601.86934588
1574187978.5373404,5.595309257507324,0.001556248404,5598.019222479999
1574187978.5853238,5.643292665481567,0.001556228846,5597.94842252
1574187978.6331863,5.691155195236206,0.001556001604,5597.1258064799995
1574187978.68117,5.739138841629028,0.001555190422,5594.18932764
1574187978.7291572,5.787126064300537,0.001555670053,5595.92559186
1574187978.777146,5.8351149559021,0.001554638147,5592.190092139999
1574187978.8251333,5.883102178573608,0.001524120569,5481.716459779999
1574187978.8731217,5.931090593338013,0.001319535077,4741.1169787399995
1574187978.9211092,5.979078054428101,0.00098926574,3545.5419788000004
1574187978.969096,6.027064800262451,0.00059123151,2104.6580662
1574187979.0170832,6.07505202293396,0.000196396373,675.35487026
1574187979.0650713,6.123040199279785,-5.5059791e-05,-234.91644341999998
1574187979.1130593,6.171028137207031,-0.000275399536,-1032.54632032
1574187979.161047,6.219015836715698,-0.000429472886,-1590.29184732
1574187979.2090352,6.267004013061523,-0.000487237237,-1799.39879794
1574187979.257022,6.314990758895874,-0.000458620489,-1695.80617018
1574187979.305011,6.362979888916016,-0.000397617929,-1474.9769029799997
1574187979.3529973,6.410966157913208,-0.000319003128,-1190.3913233600001
1574187979.4009845,6.458953380584717,-0.000228989869,-864.54332578
1574187979.4489722,6.506941080093384,-0.000136274844,-528.91493528
1574187979.496961,6.554929971694946,-5.7375059e-05,-243.29771358
1574187979.5449486,6.602917432785034,-1.1538155e-05,-77.3681211
1574187979.5929382,6.650907039642334,2.1186657e-05,41.095698340000006
1574187979.6409235,6.69889235496521,5.0717965e-05,147.9990333
1574187979.6889122,6.746881008148193,5.7135709e-05,171.23126658
1574187979.7368987,6.794867515563965,5.5231154e-05,164.33677748000002
1574187979.7848856,6.8428544998168945,5.5559911e-05,165.52687782
1574187979.832874,6.890842914581299,5.5491924e-05,165.28076488000002
1574187979.8808618,6.938830614089966,5.5007637e-05,163.52764594
1574187979.928851,6.986819744110107,5.5653974e-05,165.86738588
1574187979.9768379,7.034806728363037,5.4936856e-05,163.27141872
1574187980.0248258,7.082794666290283,5.531311e-05,164.6334582
1574187980.0728128,7.130781650543213,5.5347569e-05,164.75819978
1574187980.1208003,7.178769111633301,6.6166744e-05,203.92361328
1574187980.1687887,7.226757526397705,0.000199998729,688.39539898
1574187980.216775,7.2747437953948975,0.000380785204,1342.84243848
1574187980.2647636,7.322732448577881,0.000551427715,1960.5683283
1574187980.31275,7.370718955993652,0.000701281242,2503.0380960400003
1574187980.3607385,7.418707370758057,0.000832199119,2976.96081078
1574187980.4087245,7.46669340133667,0.000944385305,3383.0748041
1574187980.4567661,7.514734983444214,0.001035161316,3711.68396392
1574187980.5048356,7.562804460525513,0.001115979627,4004.2462497399997
1574187980.5528233,7.61079216003418,0.001186300069,4258.80624978
1574187980.6286714,7.68664026260376,0.001249223948,4486.59069176
1574187980.6486642,7.7066330909729,0.001309232786,4703.822685319999
1574187980.6966581,7.754626989364624,0.001362036914,4894.97362868
1574187980.7446406,7.802609443664551,0.00141241774,5077.3522188
1574187980.7926464,7.8506152629852295,0.001462179236,5257.48883432
1574187980.8406692,7.898638010025024,0.001504999585,5412.4984976999995
1574187980.8887424,7.946711301803589,0.001540282741,5540.22352242
1574187980.936724,7.994692802429199,0.001559631899,5610.26747438
1574187980.9846096,8.04257845878601,0.001558661461,5606.754488819999
1574187981.0326989,8.090667724609375,0.00155737251,5602.088486199999
1574187981.0806847,8.13865351676941,0.00155616831,5597.7292822
1574187981.1286733,8.186642169952393,0.001555922441,5596.839236419999
1574187981.1765766,8.234545469284058,0.001554891467,5593.10711054
1574187981.2245486,8.282517433166504,0.001554701477,5592.419346739999
1574187981.2725346,8.330503463745117,0.00155423861,5590.7437682
1574187981.3206077,8.378576517105103,0.001553596929,5588.420882979999
1574187981.368479,8.426447868347168,0.001553667709,5588.67710658
1574187981.4166036,8.47457242012024,0.001448222436,5206.96521832
1574187981.4645875,8.52255630493164,0.001180492342,4237.782278039999
1574187981.5125716,8.570540428161621,0.000811752863,2902.94536406
1574187981.5605614,8.6185302734375,0.000408895314,1444.60103668
1574187981.6085486,8.666517496109009,5.8541074e-05,176.31868788000003
1574187981.6564097,8.714378595352173,-0.000155084766,-597.00685292
1574187981.7043931,8.762362003326416,-0.000347422436,-1293.26921832
1574187981.7523842,8.81035304069519,-0.000462858006,-1711.1459817199998
1574187981.800368,8.858336925506592,-0.000475985929,-1758.6690629799998
1574187981.8483572,8.906326055526733,-0.000439427793,-1626.32861066
1574187981.896482,8.954450845718384,-0.000375591218,-1395.24020916
1574187981.9444642,9.002433061599731,-0.000295653008,-1105.86388896
1574187981.9924493,9.050418138504028,-0.000206797384,-784.20653008
1574187982.0404406,9.098409414291382,-0.000120314769,-471.13946378
1574187982.0883038,9.146272659301758,-4.8301183e-05,-210.45028245999998
1574187982.1362834,9.194252252578735,-1.037214e-05,-73.1471468
1574187982.1844037,9.242372512817383,7.4151903e-05,232.82988886
1574187982.2323923,9.290361166000366,0.000239650719,831.93560278
1574187982.2803805,9.338349342346191,0.000423291698,1496.71594676
1574187982.3283663,9.386335134506226,0.000590446405,2101.8159861
1574187982.376228,9.434196949005127,0.000736556947,2630.73614814
1574187982.4242063,9.48217511177063,0.000865005888,3095.72131456
1574187982.4722373,9.530206203460693,0.000971549191,3481.4080714200004
1574187982.5201955,9.578164339065552,0.001060392708,3803.02160296
1574187982.568202,9.626170873641968,0.001139344648,4088.8276257600005
1574187982.616163,9.674131870269775,0.001207215711,4334.52087382
1574187982.664149,9.722117900848389,0.001269663684,4560.582536079999
1574187982.7121377,9.770106554031372,0.001327415928,4769.64565936
1574187982.7601295,9.818098306655884,0.001378450543,4954.39096566
1574187982.8081086,9.866077423095703,0.001427904703,5133.41502486
1574187982.8560956,9.914064407348633,0.001475730911,5306.5458978199995
1574187982.9040835,9.962052345275879,0.001515957527,5452.16624774
1574187982.9521182,10.010087013244629,0.001546307467,5562.03303054
1574187983.000178,10.058146953582764,0.001557290554,5601.791805479999
1574187983.0507364,10.108705282211304,0.001555868424,5596.643694879999
1574187983.0973115,10.155280351638794,0.001554296352,5590.95279424
1574187983.1453445,10.20331335067749,0.001553978771,5589.80315102
1574187983.1934083,10.25137710571289,0.001553185284,5586.930728079999
1574187983.2414002,10.299369096755981,0.001552603208,5584.82361296
1574187983.2893858,10.347354650497437,0.001552488655,5584.4089311
1574187983.3373706,10.395339488983154,0.001551700756,5581.55673672
1574187983.3852375,10.443206310272217,0.001538780518,5534.78547516
1574187983.4332159,10.491184711456299,0.001364376396,4903.44255352
1574187983.4812922,10.539261102676392,0.001054215245,3780.6591869
1574187983.5293202,10.587289094924927,0.000663422979,2365.99118398
1574187983.5773125,10.635281324386597,0.000262323767,914.0120365399999
1574187983.6251688,10.683137655258179,-1.9025989e-05,-104.47408018000002
1574187983.673159,10.731127738952637,-0.000242576003,-913.72513086
1574187983.7211437,10.779112577438354,-0.000407766551,-1511.71491462
1574187983.7691448,10.827113628387451,-0.00048441533,-1789.1834946
1574187983.8171175,10.875086307525635,-0.000466995873,-1726.1250602599998
1574187983.8651052,10.923074007034302,-0.00041571632,-1540.4930784
1574187983.913207,10.971175909042358,-0.000343269669,-1278.2362017799999
1574187983.961096,11.019064903259277,-0.000258290209,-970.61055658
1574187984.0090861,11.067054986953735,-0.000166027807,-636.62066134
1574187984.0570638,11.11503267288208,-8.4178522e-05,-340.32624964
1574187984.1050913,11.163060188293457,-2.3392029e-05,-120.27914498000001
1574187984.1531653,11.211134195327759,1.1774711e-05,7.024453819999998
1574187984.2011566,11.259125471115112,0.000142701901,480.98088162
1574187984.2491426,11.307111501693726,0.000325709581,1143.46868322
1574187984.2971292,11.355098009109497,0.000502420589,1783.16253218
1574187984.3449836,11.402952432632446,0.000660005957,2353.62156434
1574187984.3930001,11.450968980789185,0.000798257068,2854.09058616
1574187984.441012,11.49898076057434,0.000918226317,3288.37926754
1574187984.4890764,11.547045230865479,0.001015424728,3640.2375153599996
1574187984.5369403,11.594909191131592,0.001099682413,3945.25033506
1574187984.5850086,11.642977476119995,0.001173117198,4211.08425676
1574187984.6329188,11.690887689590454,0.001238225028,4446.77460136
1574187984.6809103,11.738879203796387,0.001297903247,4662.80975414
1574187984.7289095,11.78687834739685,0.001352373511,4859.992109819999
1574187984.7770045,11.834973335266113,0.001400521956,5034.289480719999
1574187984.8248913,11.88286018371582,0.001449970528,5213.293311359999
1574187984.8728645,11.930833339691162,0.001494371332,5374.02422184
1574187984.9208977,11.978866577148438,0.001531432383,5508.18522646
1574187984.9689548,12.026923656463623,0.001554822549,5592.857627379999
1574187985.016821,12.074789762496948,0.001555202529,5594.233154979999
1574187985.0649312,12.122900009155273,0.001554355957,5591.16856434
1574187985.1129138,12.17088270187378,0.00155311171,5586.6643902
1574187985.1608593,12.218828201293945,0.001552543603,5584.607842859999
1574187985.208762,12.266730785369873,0.001552234404,5583.4885424799995
1574187985.2567465,12.314715385437012,0.001551416703,5580.528464859999
1574187985.3047347,12.362703561782837,0.001551498659,5580.82514558
1574187985.3527222,12.410691022872925,0.00155076012,5578.151634399999
1574187985.4007258,12.458694696426392,0.00155061204,5577.6155848
1574187985.448697,12.5066659450531,0.001550514251,5577.26158862
1574187985.4986944,12.556663274765015,0.001546785235,5563.7625507
1574187985.5467434,12.60471224784851,0.001403747126,5045.964596119999
1574187985.6066735,12.664642333984375,0.001111380756,3987.5983367199997
1574187985.6426623,12.700631141662598,0.000730366446,2608.32653452
1574187985.690742,12.748710870742798,0.000328273512,1152.75011344
1574187985.738743,12.796711921691895,1.2164004e-05,8.43369448
1574187985.7867427,12.844711542129517,-0.000206163153,-781.91061386
1574187985.8346148,12.89258360862732,-0.000384104438,-1426.05806556
1574187985.8826115,12.940580368041992,-0.000477857888,-1765.44555456
1574187985.9307158,12.98868465423584,-0.000472049229,-1744.41820898
1574187985.9785779,13.03654670715332,-0.000425842591,-1577.1501794199999
1574187986.0266123,13.084581136703491,-0.000356080942,-1324.61301004
1574187986.0746794,13.132648229598999,-0.000274402089,-1028.93556218
1574187986.1226666,13.180635452270508,-0.000181918032,-694.14327584
1574187986.1706636,13.22863245010376,-9.3659386e-05,-374.64697732
1574187986.2185194,13.276488304138184,-2.9415824e-05,-142.08528288
1574187986.2665536,13.324522495269775,2.694316e-06,-25.84657608
1574187986.3146203,13.372589111328125,3.5976991e-05,94.63670742
1574187986.3624792,13.420448064804077,5.4501928e-05,161.69697936
1574187986.4104834,13.468452215194702,5.3753145e-05,158.98638490000002
1574187986.4584548,13.51642370223999,6.2427483e-05,190.38748846
1574187986.5064461,13.564414978027344,0.000196299516,675.00424792
1574187986.554562,13.612530946731567,0.000378478318,1334.49151116
1574187986.6024191,13.660387992858887,0.000551009551,1959.0545746199998
1574187986.6504083,13.708377122879028,0.000702182762,2506.30159844
1574187986.6985245,13.756493330001831,0.000834089704,2983.80472848
1574187986.7465138,13.804482698440552,0.000944633968,3383.97496416
1574187986.791685,13.849653959274292,0.00103530474,3712.2031588
1574187986.839539,13.897507905960083,0.001116449013,4005.94542706
1574187986.8876588,13.945627689361572,0.001186435111,4259.295101819999
1574187986.9355133,13.993482112884521,0.00124625396,4475.839335199999
1574187986.9836318,14.041600704193115,0.001303070225,4681.5142145
1574187987.0315354,14.08950424194336,0.001354897395,4869.1285699
1574187987.0796068,14.137575626373291,0.001402170397,5040.256837139999
1574187987.1275513,14.18552017211914,0.00145063363,5215.6937406
1574187987.175583,14.233551740646362,0.001493777148,5371.87327576
1574187987.2235706,14.28153944015503,0.00152840279,5497.218099799999
