Time, Time Since Begin, V/V Raw Data, Force 
1574187272.2022474,0.24794697761535645,-1.0388903e-05,-73.20782886
1574187272.2503552,0.2960548400878906,-1.0312535e-05,-72.9313767
1574187272.29031,0.33600950241088867,-1.024548e-05,-72.6886376
1574187272.3302054,0.37590503692626953,-1.0176562e-05,-72.43915444000001
1574187272.370226,0.4159255027770996,-1.0233372e-05,-72.64480664
1574187272.4183033,0.4640028476715088,-1.0479242e-05,-73.53485604
1574187272.4582996,0.5039992332458496,-1.0537915e-05,-73.74725230000001
1574187272.4981623,0.5438618659973145,-1.1084601e-05,-75.72625562
1574187272.538149,0.5838487148284912,-1.109764e-05,-75.77345679999999
1574187272.5861332,0.6318328380584717,-1.1016615e-05,-75.4801463
1574187272.6261418,0.6718413829803467,-9.533018e-06,-70.10952516
1574187272.6661322,0.71183180809021,4.4798478e-05,126.57049036000001
1574187272.7061498,0.7518494129180908,0.000149314292,504.91773704
1574187272.7541487,0.7998483180999756,0.00027464889,958.6289818
1574187272.7942145,0.839914083480835,0.000400909223,1415.69138726
1574187272.8341212,0.8798208236694336,0.000516014174,1832.3713098800001
1574187272.8741927,0.9198923110961914,0.000620113686,2209.21154332
1574187272.9204326,0.9661321640014648,0.000712182373,2542.50019026
1574187272.960303,1.00600266456604,0.000794121996,2839.12162552
1574187273.0004137,1.0461132526397705,0.000866980292,3102.86865704
1574187273.0404046,1.086104154586792,0.000930029899,3331.10823438
1574187273.0883071,1.1340067386627197,0.000984249637,3527.3836859400003
1574187273.1283832,1.1740827560424805,0.001033643261,3706.18860482
1574187273.1682444,1.2139439582824707,0.001078885049,3869.9638773799998
1574187273.2083611,1.2540607452392578,0.001119320281,4016.33941722
1574187273.2563443,1.3020439147949219,0.001155233942,4146.34687004
1574187273.2962103,1.3419098854064941,0.001185650937,4256.45639194
1574187273.336203,1.3819026947021484,0.001215218566,4363.49120892
1574187273.3762052,1.4219048023223877,0.001243517734,4465.93419708
1574187273.42431,1.4700095653533936,0.001269390807,4559.5947213399995
1574187273.4641707,1.5098702907562256,0.001293104142,4645.43699404
1574187273.504284,1.5499835014343262,0.001313314773,4718.59947826
1574187273.5442743,1.5899739265441895,0.001330465078,4780.6835823599995
1574187273.592261,1.63796067237854,0.001344709657,4832.248958339999
1574187273.6322494,1.6779489517211914,0.001353560016,4864.287257919999
1574187273.6722398,1.7179393768310547,0.001351172104,4855.6430164799995
1574187273.7202272,1.7659268379211426,0.001349149272,4848.32036464
1574187273.768216,1.813915491104126,0.001349612139,4849.995943179999
1574187273.8161588,1.8618583679199219,0.001348580234,4846.26044708
1574187273.86419,1.9098896980285645,0.001347754151,4843.27002662
1574187273.9121776,1.9578771591186523,0.001348594204,4846.31101848
1574187273.9601662,2.0058658123016357,0.001346805133,4839.83458146
1574187274.00803,2.05372953414917,0.001347823068,4843.519506159999
1574187274.0561428,2.1018424034118652,0.001347153448,4841.0954817599995
1574187274.1040418,2.1497414112091064,0.001346653327,4839.285043739999
1574187274.1521134,2.197813034057617,0.001346930861,4840.289716819999
1574187274.2000172,2.2457168102264404,0.00129644759,4657.5402758
1574187274.2480912,2.293790817260742,0.001088910736,3906.2568643200007
1574187274.2959912,2.3416907787323,0.000783022493,2798.94142466
1574187274.3439353,2.389634847640991,0.000431829132,1527.6214578400002
1574187274.39192,2.437619686126709,0.000105378218,345.86914916
1574187274.4400344,2.485733985900879,-8.0577098e-05,-327.28909476
1574187274.487897,2.5335965156555176,-0.00025515724,-959.2692088000001
1574187274.5360148,2.581714391708374,-0.00036943052,-1372.9384823999999
1574187274.587872,2.6335716247558594,-0.00039400626,-1461.9026612
1574187274.6318948,2.6775944232940674,-0.000361915678,-1345.73475436
1574187274.6799617,2.725661277770996,-0.000309405848,-1155.64916976
1574187274.7279665,2.7736661434173584,-0.000246018171,-926.18577902
1574187274.7759492,2.8216488361358643,-0.000175073743,-669.36694966
1574187274.82394,2.8696396350860596,-0.00010704156,-423.0904472
1574187274.8718038,2.9175033569335938,-5.3268857e-05,-228.43326234
1574187274.9197874,2.965487003326416,-1.9123778e-05,-104.82807636000001
1574187274.9677854,3.0134849548339844,4.7976151e-05,138.07366662
1574187275.015779,3.061478614807129,0.000172343105,588.2820401
1574187275.0638776,3.109577178955078,0.0003174413,1113.5375060000001
1574187275.1118643,3.1575639247894287,0.0004573185,1619.89297
1574187275.1598568,3.2055563926696777,0.00058335159,2076.1327558000003
1574187275.2078366,3.2535362243652344,0.000694544055,2478.6494791
1574187275.2558272,3.3015267848968506,0.000790487975,2825.9664695
1574187275.3036911,3.349390745162964,0.000872794539,3123.91623118
1574187275.3516757,3.3973753452301025,0.000943104737,3378.43914794
1574187275.3996575,3.445357084274292,0.001002368517,3592.9740315399995
1574187275.4477746,3.493474245071411,0.001057682559,3793.2108635800005
1574187275.4957666,3.541466236114502,0.001104963012,3964.36610344
1574187275.5436296,3.589329242706299,0.001147151925,4117.0899685
1574187275.5916123,3.6373119354248047,0.001184640452,4252.798436239999
1574187275.6397276,3.685427188873291,0.001217776909,4372.752410579999
1574187275.687713,3.733412504196167,0.00125129614,4494.092026799999
1574187275.735701,3.781400680541992,0.001279931515,4597.7520843
1574187275.7836897,3.8293893337249756,0.001304884441,4688.08167642
1574187275.8315496,3.877249240875244,0.00132764224,4770.4649088
1574187275.8795369,3.925236463546753,0.001344839111,4832.717581819999
1574187275.9298606,3.975560188293457,0.001355445012,4871.11094344
1574187275.977717,4.023416519165039,0.00135319028,4862.948813599999
1574187276.0258353,4.071534872055054,0.001352217048,4859.42571376
1574187276.0738187,4.119518280029297,0.001352539286,4860.59221532
1574187276.121808,4.167507648468018,0.001350738108,4854.071950959999
1574187276.1696649,4.215364456176758,0.001351297833,4856.098155459999
1574187276.2177796,4.263479232788086,0.001350836828,4854.42931736
1574187276.2657278,4.311427354812622,0.001350663602,4853.80223924
1574187276.31363,4.359329700469971,0.00129489135,4651.906687
1574187276.3616152,4.407314777374268,0.00108244922,3882.8661764000003
1574187276.409603,4.455302715301514,0.000773990527,2766.24570774
1574187276.4577174,4.503417015075684,0.000421059318,1488.6347311600002
1574187276.5057054,4.55140495300293,9.7303651e-05,316.63921661999996
1574187276.5536954,4.599395036697388,-8.6124986e-05,-347.37244932
1574187276.6016839,4.647383451461792,-0.000260448083,-978.4220604599999
1574187276.6495852,4.695284843444824,-0.000371194445,-1379.3238909
1574187276.69766,4.743359565734863,-0.000393272378,-1459.24600836
1574187276.7455652,4.791264772415161,-0.000360567123,-1340.85298526
1574187276.7935112,4.839210748672485,-0.0003074212,-1148.4647439999999
1574187276.8416255,4.887325048446655,-0.000244201161,-919.60820282
1574187276.8896084,4.93530797958374,-0.00017309282,-662.1960084
1574187276.9375951,4.983294725418091,-0.000103904866,-411.73561492
1574187276.9855835,5.031283140182495,-5.0656497e-05,-218.97651914
1574187277.0335672,5.079266786575317,-1.8979423e-05,-104.30551126
1574187277.0815623,5.1272618770599365,-7.91624e-07,-38.46567888
1574187277.1295474,5.175246953964233,1.1415221e-05,5.723100019999997
1574187277.1775322,5.223231792449951,1.1417083e-05,5.729840459999998
1574187277.2255218,5.271221399307251,1.2298115e-05,8.919176299999997
1574187277.2735088,5.319208383560181,9.1656111e-05,296.19512181999994
1574187277.3213649,5.367064476013184,0.000222668052,770.4583482400001
1574187277.369352,5.415051698684692,0.000367159024,1293.51566688
1574187277.4174714,5.463171005249023,0.000502401963,1783.0951060600003
1574187277.4654615,5.5111610889434814,0.000623366795,2220.9877979
1574187277.5133173,5.559016942977905,0.000727985054,2599.70589548
1574187277.5614338,5.607133388519287,0.00081882719,2928.5544278
1574187277.6093197,5.655019283294678,0.000895999372,3207.91772664
1574187277.6574042,5.70310378074646,0.000960886478,3442.80905036
1574187277.7053928,5.751092433929443,0.001018632203,3651.84857486
1574187277.753286,5.798985481262207,0.001070404425,3839.2640185000005
1574187277.8013797,5.847079277038574,0.001115590334,4002.8370090800004
1574187277.8493586,5.8950581550598145,0.001155071892,4145.7602490399995
1574187277.897349,5.943048715591431,0.001189144328,4269.1024673599995
1574187277.94525,5.990949630737305,0.001222699881,4390.57356922
1574187277.9933217,6.039021253585815,0.001255223528,4508.30917136
1574187278.0411866,6.086886167526245,0.001282710582,4607.812306839999
1574187278.0892956,6.134995222091675,0.001308838837,4702.39658994
1574187278.1372843,6.182983875274658,0.00132895913,4775.2320506
1574187278.1852727,6.2309722900390625,0.001347173005,4841.1662781
1574187278.2331557,6.278855323791504,0.0013565626,4875.156612
1574187278.2812426,6.326942205429077,0.001357655041,4879.111248419999
1574187278.329102,6.3748016357421875,0.001358143985,4880.8812257
1574187278.3771098,6.422809362411499,0.001356505789,4874.95095618
1574187278.4250805,6.47078013420105,0.001356325112,4874.29690544
1574187278.471356,6.517055511474609,0.00135666877,4875.5409474
1574187278.5193467,6.565046310424805,0.00135509856,4869.856787199999
1574187278.5672536,6.612953186035156,0.001356320456,4874.280050719999
1574187278.6151922,6.660891771316528,0.001355023123,4869.58370526
1574187278.6631773,6.708876848220825,0.001355138607,4870.00175734
1574187278.7112064,6.756906032562256,0.001355657354,4871.8796214799995
1574187278.759286,6.804985523223877,0.001354862936,4869.00382832
1574187278.807236,6.852935552597046,0.001353956759,4865.723467579999
1574187278.856402,6.902101516723633,0.001237394288,4443.76732256
1574187278.9044826,6.950182199478149,0.000984185375,3527.1510575
1574187278.9524732,6.998172760009766,0.000652658753,2327.02468586
1574187279.0024235,7.048123121261597,0.000298076309,1043.43623858
1574187279.050425,7.096124649047852,2.1831132e-05,43.42869783999999
1574187279.0984251,7.144124746322632,-0.0001588827,-610.755374
1574187279.1464245,7.192124128341675,-0.000310920179,-1161.13104798
1574187279.191456,7.2371556758880615,-0.000393445604,-1459.87308648
1574187279.2394004,7.285099983215332,-0.000390314497,-1448.53847914
1574187279.2874315,7.3331310749053955,-0.000353468582,-1315.15626684
1574187279.3352885,7.380988121032715,-0.000297250226,-1111.6458181199998
1574187279.3832748,7.428974390029907,-0.000231496058,-873.61572996
1574187279.4313512,7.47705078125,-0.000159908086,-614.46727132
1574187279.4793832,7.52508282661438,-9.4630755e-05,-378.16333310000005
1574187279.5273676,7.5730671882629395,-4.5522116e-05,-200.39005992
1574187279.5752244,7.62092399597168,-1.8649735e-05,-103.1120407
1574187279.6232135,7.668913125991821,5.6160614e-05,167.70142268
1574187279.67122,7.716919660568237,0.000180917792,619.32240704
1574187279.7193096,7.765009164810181,0.00032652542,1146.4220204
1574187279.7673075,7.813007116317749,0.00046632532,1652.4976584
1574187279.815292,7.860991477966309,0.000591254793,2104.7423506600003
1574187279.8632832,7.908982753753662,0.000700740144,2501.07932128
1574187279.911272,7.956971645355225,0.000796116889,2846.34313818
1574187279.9592578,8.004957437515259,0.000876328908,3136.71064696
1574187280.0071585,8.052858114242554,0.00094563514,3387.5992068
1574187280.055231,8.10093069076538,0.00100417342,3599.5077804
1574187280.103173,8.14887261390686,0.00105767604,3793.1872648000003
1574187280.151076,8.196775674819946,0.001104977913,3964.4200450600006
1574187280.1991043,8.24480390548706,0.00114457123,4107.7478525999995
1574187280.2470574,8.292757034301758,0.001181621104,4241.868396479999
1574187280.295169,8.340868711471558,0.001213803887,4358.37007094
1574187280.343026,8.388725519180298,0.001246595755,4477.0766331
1574187280.39101,8.436709642410278,0.001276069321,4583.770942019999
1574187280.43913,8.484829664230347,0.001299857162,4669.882926439999
1574187280.4871192,8.532818794250488,0.001322498545,4751.8447329
1574187280.5351017,8.580801248550415,0.001338829286,4810.96201532
1574187280.5830896,8.628789186477661,0.001352062449,4858.86606538
1574187280.6310382,8.676737785339355,0.001353601925,4864.4389685
1574187280.6789382,8.724637746810913,0.001351639628,4857.3354533599995
1574187280.7269287,8.77262830734253,0.001352421939,4860.16741918
1574187280.7750363,8.820735931396484,0.001350643113,4853.72806906
1574187280.822908,8.868607521057129,0.001351051033,4855.2047394599995
1574187280.871021,8.916720628738403,0.001350947656,4854.830514719999
1574187280.9189205,8.964620113372803,0.001349791884,4850.64662008
1574187280.9669907,9.012690305709839,0.001350387,4852.800939999999
1574187281.0148797,9.060579299926758,0.001278550364,4592.75231768
1574187281.0629706,9.108670234680176,0.001053361222,3777.5676236400004
1574187281.110823,9.156522512435913,0.000737442635,2633.9423387
1574187281.1588345,9.20453405380249,0.000384553336,1356.48307632
1574187281.206851,9.252550601959229,7.0947222e-05,221.22894364000004
1574187281.2549195,9.300619125366211,-0.000107461587,-424.61094494
1574187281.302906,9.348605632781982,-0.000276926905,-1038.0753961
1574187281.3507926,9.39649224281311,-0.000380123034,-1411.6453830799999
1574187281.3987794,9.444478988647461,-0.000393996947,-1461.86894814
1574187281.4478333,9.49353289604187,-0.000361686572,-1344.90539064
1574187281.4968698,9.542569398880005,-0.000308357179,-1151.8529879799999
1574187281.544815,9.590514659881592,-0.000244054943,-919.0788936600001
1574187281.5937188,9.639418363571167,-0.000172417611,-659.7517518200001
1574187281.6416924,9.687391996383667,-0.00010203477,-404.96586740000004
1574187281.6896932,9.735392808914185,-4.8889779e-05,-212.58099998
1574187281.7376723,9.783371925354004,-1.8607825e-05,-102.96032650000001
1574187281.7857604,9.831459999084473,2.73809e-07,-34.60881142
1574187281.8337557,9.879455327987671,1.2145378e-05,8.36626836
1574187281.8821769,9.927876472473145,1.419615e-05,15.790062999999996
1574187281.9303038,9.976003408432007,1.4218502e-05,15.870977239999995
1574187281.978293,10.023992538452148,3.6825426e-05,97.70804212000002
1574187282.0262835,10.071983098983765,0.000146386214,494.31809467999994
1574187282.0742671,10.119966745376587,0.000287042931,1003.49541022
1574187282.1221197,10.167819261550903,0.000428830273,1516.76558826
1574187282.1702335,10.215933084487915,0.000557688065,1983.2307953000002
1574187282.2182283,10.263927936553955,0.000669686124,2388.66376888
1574187282.266113,10.31181263923645,0.000768016092,2744.61825304
1574187282.3141596,10.359859228134155,0.000851257704,3045.95288848
1574187282.3620882,10.407787799835205,0.000917990692,3287.52630504
1574187282.4100993,10.455798864364624,0.000975805335,3496.8153127
1574187282.4581618,10.503861427307129,0.001029262319,3690.32959478
1574187282.5034318,10.549131393432617,0.001077929512,3866.50483344
1574187282.5514216,10.597121238708496,0.001120876521,4021.97300602
1574187282.5994077,10.64510726928711,0.001157740131,4155.419274219999
1574187282.647263,10.692962646484375,0.001190053299,4272.39294238
1574187282.6952486,10.74094820022583,0.001220394857,4382.22938234
1574187282.7432811,10.788980722427368,0.001247594133,4480.6907614599995
1574187282.7913432,10.837042808532715,0.001271575689,4567.50399418
1574187282.839221,10.884920597076416,0.00129529275,4653.3597549999995
1574187282.8872342,10.932933807373047,0.001316835172,4731.34332264
1574187282.9353197,10.981019258499146,0.001334290951,4794.533242619999
1574187282.9832623,11.028961896896362,0.001349573024,4849.85434688
1574187283.0311732,11.076872825622559,0.001353516243,4864.1287996599995
1574187283.07929,11.12498950958252,0.00135226734,4859.607770799999
1574187283.127183,11.172882556915283,0.001351695508,4857.537738959999
1574187283.1752565,11.220956087112427,0.001351004466,4855.036166919999
1574187283.2231176,11.26881718635559,0.001350921579,4854.736115979999
1574187283.2711864,11.316885948181152,0.001350431703,4852.96276486
1574187283.319088,11.364787578582764,0.001350237988,4852.261516559999
1574187283.367074,11.412773609161377,0.00135019049,4852.0895738
1574187283.4151053,11.46080493927002,0.001349730417,4850.424109539999
1574187283.4630551,11.50875473022461,0.001349885948,4850.98713176
1574187283.5110452,11.556744813919067,0.001349583268,4849.891430159999
1574187283.5590262,11.60472583770752,0.001349173486,4848.40801932
1574187283.6070416,11.652741193771362,0.001350067556,4851.64455272
1574187283.6551316,11.700831174850464,0.001348573714,4846.23684468
1574187283.703119,11.748818635940552,0.001349834725,4850.8017045
1574187283.7511067,11.796806335449219,0.001349092461,4848.11470882
1574187283.798992,11.844691514968872,0.001349050552,4847.96299824
1574187283.8469536,11.892653226852417,0.001346830279,4839.9256099799995
1574187283.8979259,11.943625450134277,0.00122033339,4382.0068718
1574187283.94578,11.991479635238647,0.000961730257,3445.86353034
1574187283.993767,12.039466619491577,0.00062899664,2241.3678368
1574187284.0422783,12.087977886199951,0.000277997926,970.7524921199998
1574187284.0879157,12.133615255355835,1.2319535e-05,8.9967167
1574187284.1358986,12.18159818649292,-0.000168941915,-647.1697323000001
1574187284.183885,12.229584693908691,-0.000317076221,-1183.41592002
1574187284.2318878,12.277587413787842,-0.000394449569,-1463.50743978
1574187284.2797534,12.325453042984009,-0.000387363136,-1437.8545523199998
1574187284.3277333,12.373432874679565,-0.000348557718,-1297.3789391599998
1574187284.375718,12.421417713165283,-0.000292256474,-1093.56843588
1574187284.423706,12.46940565109253,-0.000226452947,-855.3596681399999
1574187284.471712,12.517411708831787,-0.000155978836,-600.24338632
1574187284.5196834,12.565382957458496,-8.9189038e-05,-358.46431756000004
1574187284.567701,12.61340069770813,-4.0495768e-05,-182.19468016
1574187284.6156561,12.66135573387146,-1.5744008e-05,-92.59330896
1574187284.6636436,12.709343194961548,1.768582e-06,-29.197733160000002
1574187284.7116318,12.757331371307373,1.0926276e-05,3.9531191199999967
1574187284.7596178,12.805317401885986,1.0562129e-05,2.6349069799999967
1574187284.8076053,12.853304862976074,1.0625459e-05,2.864161579999994
1574187284.8556354,12.901335000991821,1.0400079e-05,2.0482859799999957
1574187284.9037013,12.949400901794434,1.0591e-05,2.7394200000000026
1574187284.9515717,12.997271299362183,1.0366552e-05,1.9269182399999991
1574187284.9995613,13.045260906219482,1.0418706e-05,2.115715719999997
1574187285.047634,13.09333348274231,1.0489486e-05,2.3719393199999956
1574187285.0956655,13.141365051269531,1.0291114e-05,1.6538326800000007
1574187285.1436572,13.189356803894043,1.0512769e-05,2.456223780000002
1574187285.191538,13.237237691879272,1.0292046e-05,1.6572065199999955
1574187285.2409172,13.286616802215576,1.0403804e-05,2.06177048
1574187285.2887816,13.334481239318848,1.0447577e-05,2.220228739999996
1574187285.3367665,13.382466077804565,1.029484e-05,1.6673207999999988
1574187285.3847728,13.430472373962402,1.0533258e-05,2.530393959999998
1574187285.4327793,13.478478908538818,1.0265969e-05,1.56280778
1574187285.4808578,13.526557445526123,1.0400079e-05,2.0482859799999957
1574187285.528731,13.574430704116821,1.0431744e-05,2.162913279999998
1574187285.576832,13.622531652450562,1.0306016e-05,1.707777919999998
1574187285.6247003,13.670399904251099,1.0471791e-05,2.307883420000003
1574187285.672809,13.71850848197937,1.0290183e-05,1.65046246
1574187285.7207963,13.766495943069458,1.0403804e-05,2.06177048
1574187285.7687805,13.814480066299438,1.0417774e-05,2.1123418799999953
1574187285.8167698,13.86246943473816,1.0270625e-05,1.5796624999999977
1574187285.8646367,13.910336256027222,1.0512769e-05,2.456223780000002
1574187285.9126174,13.958317041397095,1.0319054e-05,1.7549754799999988
1574187285.9606917,14.006391286849976,1.0390766e-05,2.014572919999999
1574187286.0086005,14.05430006980896,1.0429882e-05,2.1561728400000035
1574187286.0567105,14.102410078048706,1.0300428e-05,1.6875493599999984
