Time, Time Since Begin, V/V Raw Data, Force 
1574186570.6671958,0.2400670051574707,-1.5022233e-05,-89.98048346
1574186570.7071793,0.28005051612854004,-1.5087426e-05,-90.21648212
1574186570.7551694,0.32804059982299805,-1.5051104e-05,-90.08499648
1574186570.7951608,0.36803197860717773,-1.5134923e-05,-90.38842126
1574186570.8351483,0.4080195426940918,-1.5187077e-05,-90.57721874
1574186570.8751366,0.44800782203674316,-1.5267171e-05,-90.86715902
1574186570.923124,0.49599528312683105,-1.525227e-05,-90.8132174
1574186570.9631138,0.535984992980957,-1.5241094e-05,-90.77276028
1574186571.003104,0.5759751796722412,-1.5157275e-05,-90.4693355
1574186571.0430927,0.6159639358520508,-1.5103258e-05,-90.27379396
1574186571.0909793,0.6638505458831787,-1.5006401e-05,-89.92317162
1574186571.130941,0.7038121223449707,-1.5053898e-05,-90.09511076
1574186571.1709285,0.7437996864318848,-1.5064143e-05,-90.13219766
1574186571.2109315,0.7838027477264404,-1.5123747e-05,-90.34796414
1574186571.262901,0.8357722759246826,-1.5200116e-05,-90.62441992000001
1574186571.2988942,0.8717653751373291,-1.521688e-05,-90.6851056
1574186571.3390055,0.9118766784667969,-1.525972e-05,-90.8401864
1574186571.3789532,0.951824426651001,-1.5233643e-05,-90.74578766
1574186571.4268582,0.9997293949127197,-1.5170313e-05,-90.51653306
1574186571.4668534,1.039724588394165,-1.5106052e-05,-90.28390824
1574186571.5068603,1.0797314643859863,-1.5057623e-05,-90.10859526
1574186571.5469143,1.1197855472564697,-1.5021302e-05,-89.97711324
1574186571.5949469,1.1678180694580078,-1.5075319e-05,-90.17265478
1574186571.634936,1.2078073024749756,-1.5091151e-05,-90.22996662
1574186571.6749249,1.2477960586547852,-1.5188009e-05,-90.58059258
1574186571.7148674,1.287738561630249,-1.5257858e-05,-90.83344596
1574186571.7627769,1.3356480598449707,-1.5247613e-05,-90.79635906
1574186571.802759,1.3756301403045654,-1.5226193e-05,-90.71881866
1574186571.8467548,1.419625997543335,-1.514703e-05,-90.43224860000001
1574186571.8827474,1.4556186199188232,-1.5133061e-05,-90.38168082000001
1574186571.930749,1.5036201477050781,-1.5025958e-05,-89.99396795999999
1574186571.9707127,1.543583869934082,-1.5047379e-05,-90.07151198
1574186572.0107133,1.5835845470428467,-1.5088357e-05,-90.21985234
1574186572.0546913,1.6275625228881836,-1.5134923e-05,-90.38842126
1574186572.1026802,1.675551414489746,-1.5201978e-05,-90.63116036
1574186572.1426742,1.715545415878296,-1.5227124e-05,-90.72218888
1574186572.186786,1.7596571445465088,-1.52383e-05,-90.76264599999999
1574186572.2386441,1.8115153312683105,-1.5042722e-05,-90.05465364
1574186572.2866306,1.859501838684082,-1.5268102e-05,-90.87052924
1574186572.334617,1.9074881076812744,-1.503434e-05,-90.0243108
1574186572.378605,1.9514760971069336,-1.5123747e-05,-90.34796414
1574186572.4265947,1.9994659423828125,5.1804818e-05,151.93344116
1574186572.4785779,2.0514490604400635,0.000210915692,727.9148050399999
1574186572.526564,2.0994350910186768,0.000395118259,1394.7280975800002
1574186572.5745568,2.147428035736084,0.000567875803,2020.1104068599998
1574186572.622543,2.1954143047332764,0.000718508847,2565.40202614
1574186572.6705303,2.243401527404785,0.000838866457,3001.09657434
1574186572.7185507,2.291421890258789,0.000942923129,3377.7817269800003
1574186572.766506,2.3393771648406982,0.001036680304,3717.18270048
1574186572.8145494,2.387420654296875,0.001119648106,4017.52614372
1574186572.8624763,2.435347557067871,0.001192918979,4282.76670398
1574186572.9104605,2.4833316802978516,0.001260284334,4526.62928908
1574186572.9584541,2.531325340270996,0.00131482631,4724.0712422
1574186573.006456,2.57932710647583,0.001328356564,4773.05076168
1574186573.054425,2.627296209335327,0.001326363534,4765.83599308
1574186573.1025355,2.6754066944122314,0.001325135119,4761.3891307799995
1574186573.150526,2.7233972549438477,0.001324358396,4758.5773935199995
1574186573.1983857,2.771256923675537,0.001323849894,4756.73661628
1574186573.2464018,2.819272994995117,0.001323205419,4754.40361678
1574186573.294389,2.867260217666626,0.001322996803,4753.64842686
1574186573.3423476,2.9152188301086426,0.001322471537,4751.74696394
1574186573.390353,2.963224172592163,0.001322138123,4750.54000526
1574186573.438323,3.0111942291259766,0.001322010532,4750.078125839999
1574186573.486313,3.0591843128204346,0.001321573742,4748.49694604
1574186573.5343122,3.1071834564208984,0.001321552321,4748.419402019999
1574186573.5822802,3.1551513671875,0.001321197487,4747.13490294
1574186573.630267,3.2031381130218506,0.001320975833,4746.33251546
1574186573.6783688,3.2512400150299072,0.00132092461,4746.147088199999
1574186573.7263784,3.2992496490478516,0.001298691146,4665.66194852
1574186573.774364,3.3472352027893066,0.001124931499,4036.65202638
1574186573.8222668,3.3951380252838135,0.000841348432,3010.08132384
1574186573.8703334,3.443204641342163,0.000498856418,1770.2602331599999
1574186573.9183238,3.4911949634552,0.00016405154,558.2665748
1574186573.966315,3.5391862392425537,-4.4226646e-05,-195.70045851999998
1574186574.0142984,3.587169647216797,-0.000211096369,-799.76885578
1574186574.0622423,3.635113477706909,-0.000339879654,-1265.96434748
1574186574.1074371,3.6803083419799805,-0.000384595245,-1427.8347869
1574186574.1553373,3.728208541870117,-0.000360027887,-1338.9009509399998
1574186574.2034085,3.7762796878814697,-0.000314678997,-1174.73796914
1574186574.251316,3.8241872787475586,-0.000257424079,-967.4751659799999
1574186574.2992513,3.8721225261688232,-0.000193344429,-735.50683298
1574186574.347241,3.920112133026123,-0.00012932159,-503.74415580000004
1574186574.395225,3.9680962562561035,-7.8069977e-05,-318.21331674000004
1574186574.443301,4.016172170639038,-3.8043596e-05,-173.31781751999998
1574186574.4912002,4.064071416854858,-1.9571744e-05,-106.44971328
1574186574.5406039,4.11347508430481,-9.271316e-06,-69.16216392
1574186574.5894074,4.162278652191162,-7.751398e-06,-63.66006076
1574186574.6373107,4.210181951522827,-7.774681e-06,-63.74434522
1574186574.6853783,4.258249521255493,1.5058555e-05,18.9119691
1574186574.7346463,4.3075175285339355,0.000152963214,518.12683468
1574186574.7826345,4.355505704879761,0.000334942713,1176.89262106
1574186574.8306205,4.403491735458374,0.00051340647,1822.9314213999999
1574186574.8786085,4.45147967338562,0.000671399757,2394.8671203400004
1574186574.926595,4.499466180801392,0.00080020912,2861.1570144
1574186574.9745834,4.547454595565796,0.000907995738,3251.34457156
1574186575.019833,4.5927042961120605,0.001005098224,3602.8555708800004
1574186575.0688665,4.641737699508667,0.001091013663,3913.86946006
1574186575.116955,4.689826250076294,0.001166849397,4188.394817139999
1574186575.1649423,4.737813472747803,0.001235540956,4437.058260719999
1574186575.2129302,4.785801410675049,0.001296500675,4657.7324435
1574186575.260816,4.8336873054504395,0.001330083236,4779.30131432
1574186575.3087776,4.881648778915405,0.00132844504,4773.371044799999
1574186575.3568053,4.929676532745361,0.001327277161,4769.143322819999
1574186575.4058604,4.978731632232666,0.001326305792,4765.62696704
1574186575.4538898,5.026761054992676,0.001325933263,4764.27841206
1574186575.5018344,5.074705600738525,0.001325350255,4762.1679231
1574186575.549865,5.122736215591431,0.001324928366,4760.640684919999
1574186575.5978038,5.170675039291382,0.001324752346,4760.00349252
1574186575.6457999,5.218671083450317,0.001324305311,4758.3852258199995
1574186575.690887,5.263758182525635,0.001324167475,4757.8862595
1574186575.7387462,5.311617374420166,0.001323907636,4756.94564232
1574186575.78685,5.3597211837768555,0.001323604956,4755.84994072
1574186575.834717,5.407588243484497,0.001286738552,4622.393558239999
1574186575.8828285,5.455699682235718,0.001093842089,3924.10836218
1574186575.9346924,5.507563591003418,0.00079881493,2856.1100466
1574186575.9826932,5.5555644035339355,0.000451385975,1598.4172295
1574186576.0306938,5.603564977645874,0.000124211423,414.04535126
1574186576.0786889,5.651560068130493,-6.4891763e-05,-270.50818206
1574186576.1266766,5.69954776763916,-0.000231316313,-872.96505306
1574186576.1707597,5.743630886077881,-0.00035067834,-1305.0555908
1574186576.2226167,5.795487880706787,-0.000382799655,-1421.3347511
1574186576.2706027,5.8434739112854,-0.000360495411,-1340.5933878199999
1574186576.3146183,5.887489557266235,-0.000316604972,-1181.70999864
1574186576.3665826,5.939453840255737,-0.000261161476,-981.00454312
1574186576.4145977,5.987468957901001,-0.000198232941,-753.20324642
1574186576.4625843,6.0354554653167725,-0.000133998692,-520.67526504
1574186576.510544,6.083415269851685,-8.1266277e-05,-329.78392274
1574186576.5585608,6.131432056427002,-4.2246655e-05,-188.5328911
1574186576.6032686,6.176139831542969,-2.2676773e-05,-117.68991825999998
1574186576.6512566,6.224127769470215,-1.2119301e-05,-79.47186962
1574186576.699201,6.2720723152160645,-9.749085e-06,-70.8916877
1574186576.7472353,6.320106506347656,-9.944662e-06,-71.59967644
1574186576.795178,6.368049144744873,3.3320859e-05,85.02150958000001
1574186576.8432028,6.41607403755188,0.000184938312,633.87668944
1574186576.8921037,6.464974880218506,0.000369024463,1300.26855606
1574186576.940115,6.512986183166504,0.000544879586,1936.8641013200001
1574186576.98802,6.560891151428223,0.000698087737,2491.47760794
1574186577.035964,6.608835220336914,0.000822511502,2941.89163724
1574186577.0849915,6.657862663269043,0.000928114168,3324.17328816
1574186577.1329622,6.705833435058594,0.00102346763,3669.3528206
1574186577.18095,6.753821134567261,0.001107539982,3973.6947348400004
1574186577.2289948,6.801866054534912,0.001181717962,4242.219022439999
1574186577.2769084,6.8497796058654785,0.001249584369,4487.89541578
1574186577.3248801,6.897751331329346,0.001307063736,4695.970724319999
1574186577.3730006,6.945871829986572,0.001332804561,4789.15251082
1574186577.420989,6.993860244750977,0.001330419444,4780.51838728
1574186577.4689755,7.041846752166748,0.001329276711,4776.38169382
1574186577.516963,7.089834213256836,0.001328674145,4774.2004049
1574186577.5649467,7.137817859649658,0.001328024082,4771.8471768399995
1574186577.6129382,7.185809373855591,0.001327716745,4770.734616899999
1574186577.6607916,7.233662843704224,0.001327347942,4769.39955004
1574186577.7088244,7.281695604324341,0.001326921396,4767.855453519999
1574186577.7568994,7.329770565032959,0.001326854341,4767.61271442
1574186577.8048866,7.377757787704468,0.001326443627,4766.125929739999
1574186577.852874,7.425745248794556,0.001326371916,4765.86633592
1574186577.9007354,7.473606586456299,0.001326094382,4764.86166284
1574186577.9487605,7.521631717681885,0.001302300952,4678.72944624
1574186577.9968333,7.569704532623291,0.001125725918,4039.52782316
1574186578.044823,7.617694139480591,0.000838990323,3001.54496926
1574186578.0928118,7.665683031082153,0.000495447777,1757.9209527400003
1574186578.140796,7.713667154312134,0.000160396099,545.0338783799999
1574186578.1896286,7.762499809265137,-4.6610832e-05,-204.33121183999998
1574186578.2377539,7.810625076293945,-0.000212657265,-805.4192993
1574186578.285611,7.858482122421265,-0.000341501087,-1271.8339349399998
1574186578.333626,7.906497240066528,-0.00038540829,-1430.7780097999998
1574186578.3791263,7.951997518539429,-0.000364817679,-1356.23999798
1574186578.4269834,7.999854564666748,-0.00032182131,-1200.5931421999999
1574186578.4749987,8.04786992073059,-0.000265747309,-997.60525858
1574186578.5230892,8.09596037864685,-0.00020223856,-767.7035872
1574186578.5710738,8.14394497871399,-0.000136050396,-528.10243352
1574186578.6229312,8.195802450180054,-7.9615973e-05,-323.80982226000003
1574186578.666963,8.239834308624268,-3.8164668e-05,-173.75609816
1574186578.715023,8.287894248962402,-1.7630868e-05,-99.42374216
1574186578.7630258,8.335896968841553,-4.519708e-06,-51.96134296
1574186578.8110127,8.383883953094482,9.1064721e-05,294.05429002
1574186578.8589988,8.431869983673096,0.000262538902,914.79082524
1574186578.9069848,8.479856014251709,0.00044553075,1577.2213150000002
1574186578.9549675,8.527838706970215,0.000612479635,2181.5762787000003
1574186579.002955,8.575826168060303,0.000753456727,2691.91335174
1574186579.0509474,8.623818635940552,0.00086639449,3100.7480538000004
1574186579.098811,8.671682119369507,0.000967280939,3465.95699918
1574186579.1467905,8.719661712646484,0.001057533547,3792.67144014
1574186579.1949072,8.767778396606445,0.001136435196,4078.29540952
1574186579.2428951,8.815766334533691,0.001207896508,4336.98535896
1574186579.2907796,8.863650798797607,0.001272181049,4569.69539738
1574186579.3427432,8.915614366531372,0.00132243149,4751.6019938
1574186579.3868556,8.959726810455322,0.001332088374,4786.55991388
1574186579.4357448,9.008615970611572,0.00133057218,4781.0712916
1574186579.4836,9.056471109390259,0.001329548657,4777.366138339999
1574186579.531719,9.10459017753601,0.00132904388,4775.538845599999
1574186579.579579,9.152450323104858,0.001328521408,4773.647496959999
1574186579.6275911,9.200462341308594,0.001328139566,4772.26522892
1574186579.6755798,9.248450994491577,0.00132793095,4771.510039
1574186579.723534,9.29640531539917,0.00132748019,4769.878287799999
1574186579.7715511,9.344422340393066,0.001327433623,4769.709715259999
1574186579.8195167,9.392387866973877,0.001327142119,4768.65447078
1574186579.8675256,9.440396785736084,0.001309602521,4705.16112602
1574186579.9154832,9.488354444503784,0.001141145825,4095.3478865
1574186579.963471,9.536342144012451,0.000859080814,3074.2725466800002
1574186580.0114584,9.584329605102539,0.000517584383,1838.05546646
1574186580.0594437,9.632314920425415,0.000179522671,614.27206902
1574186580.1074786,9.680349826812744,-3.5597943e-05,-164.46455365999998
1574186580.155469,9.728340148925781,-0.000202858821,-769.94893202
1574186580.2035387,9.77640986442566,-0.000335928053,-1251.65955186
1574186580.2515264,9.824397563934326,-0.000386407599,-1434.39550838
1574186580.2993863,9.872257471084595,-0.000364372507,-1354.6284753399998
1574186580.3474565,9.92032766342163,-0.000319201499,-1191.1094263799998
1574186580.3953693,9.96824049949646,-0.000260397792,-978.2400070399999
1574186580.4433877,10.016258955001831,-0.000193531625,-736.1844825000001
1574186580.4913342,10.064205408096313,-0.00012634974,-492.98605879999997
1574186580.5393245,10.11219573020935,-7.1546994e-05,-294.60011828
1574186580.5874345,10.160305738449097,-3.3386983e-05,-156.46087846
1574186580.6354234,10.20829463005066,-1.6416423e-05,-95.02745126
1574186580.6834106,10.256281852722168,-6.174669e-06,-57.95230178
1574186580.731399,10.304270267486572,-2.905726e-06,-46.11872812
1574186580.779352,10.35222315788269,-3.272668e-06,-47.44705816
1574186580.8273747,10.400245904922485,-3.439374e-06,-48.05053388
1574186580.87536,10.448231220245361,-3.375113e-06,-47.817909060000005
1574186580.9233418,10.49621295928955,-3.573485e-06,-48.5360157
1574186580.9713326,10.544203758239746,-3.471039e-06,-48.16516118
1574186581.0192018,10.5920729637146,-3.501773e-06,-48.27641826
1574186581.0673165,10.640187740325928,-3.603287e-06,-48.64389894
1574186581.1152916,10.688162803649902,-3.460795e-06,-48.1280779
1574186581.163281,10.736152172088623,1.7257407e-05,26.871813340000003
1574186581.2134814,10.786352634429932,0.000156031922,529.23555764
1574186581.2614267,10.834297895431519,0.000337926671,1187.69454902
1574186581.3093536,10.882224798202515,0.000516850501,1835.39881362
1574186581.3574367,10.930307865142822,0.000673947856,2404.09123872
1574186581.4054332,10.978304386138916,0.000802902505,2870.9070681000003
1574186581.4545186,11.027389764785767,0.000910773873,3261.40142026
1574186581.502504,11.075375318527222,0.001008240506,3614.23063172
1574186581.5504577,11.123328924179077,0.001094342209,3925.9187965799997
1574186581.5971277,11.16999888420105,0.001170420088,4201.3207185599995
1574186581.6451156,11.217986822128296,0.001239061356,4449.8021087199995
1574186581.692975,11.265846252441406,0.001298711635,4665.7361187
1574186581.7410889,11.313960075378418,0.0013321843,4786.907166
1574186581.7890785,11.361949682235718,0.001330646686,4781.34100332
1574186581.8370628,11.409934043884277,0.001329636201,4777.683047619999
1574186581.8850496,11.457920789718628,0.001328799874,4774.65554388
1574186581.9330378,11.505908966064453,0.001328340732,4772.99344984
1574186581.9810252,11.553896427154541,0.001327950507,4771.58083534
1574186582.0290086,11.601879835128784,0.001327491365,4769.918741299999
1574186582.0769997,11.649870872497559,0.001327376813,4769.50406306
1574186582.124985,11.697856187820435,0.001268543303,4556.52675686
1574186582.1729732,11.74584436416626,0.00105437357,3781.2323234000005
1574186582.2209597,11.793830871582031,0.000745711848,2663.8768897600003
1574186582.2697372,11.842608451843262,0.000396085903,1398.23096886
1574186582.3177526,11.890623807907104,8.2052313e-05,261.42937306
1574186582.3657157,11.938586950302124,-9.0881251e-05,-364.59012862000003
1574186582.4138298,11.986701011657715,-0.000257518142,-967.8156740400001
1574186582.4617023,12.034573554992676,-0.00036407169,-1353.5395177999999
1574186582.5098062,12.082677364349365,-0.000383182429,-1422.7203929799998
1574186582.5577042,12.13057541847229,-0.000357693993,-1330.4522546599999
1574186582.6057775,12.178648710250854,-0.000311936252,-1164.8092322399998
1574186582.6537654,12.2266366481781,-0.000255118124,-959.1276088800001
1574186582.7017503,12.274621486663818,-0.000191242434,-727.89761108
1574186582.7497387,12.322609901428223,-0.000127730891,-497.98582541999997
1574186582.7977297,12.370600938796997,-7.365644e-05,-302.23631280000006
1574186582.8457134,12.41858458518982,-3.7075952e-05,-169.81494623999998
1574186582.8937025,12.466573715209961,-2.0337291e-05,-109.22099342000001
1574186582.941592,12.514463186264038,-1.1070631e-05,-75.67568422
1574186582.990466,12.563337326049805,-9.381212e-06,-69.55998744
1574186583.0384665,12.611337661743164,-8.902512e-06,-67.82709344
1574186583.086466,12.659337282180786,-9.543262e-06,-70.14660844
1574186583.134466,12.707337141036987,-9.251758e-06,-69.09136396
1574186583.1824648,12.755336046218872,-9.239651e-06,-69.04753662
1574186583.230465,12.803336143493652,-9.70345e-06,-70.726489
1574186583.2783318,12.851202964782715,-9.080395e-06,-68.4710299
1574186583.3263187,12.899189949035645,-9.704381e-06,-70.72985922000001
1574186583.374432,12.947303295135498,-9.336509e-06,-69.39816258
1574186583.4223151,12.99518632888794,-9.159558e-06,-68.75759996
1574186583.470407,13.043278217315674,-9.60473e-06,-70.3691226
1574186583.5183945,13.091265678405762,-9.02731e-06,-68.27886219999999
1574186583.5663757,13.139246940612793,-9.641983e-06,-70.50397846000001
1574186583.6142344,13.187105655670166,-9.44268e-06,-69.7825016
1574186583.662261,13.235132217407227,-9.225681e-06,-68.99696521999999
1574186583.7103534,13.28322458267212,-9.924173e-06,-71.52550626
1574186583.7583275,13.331198692321777,-8.901581e-06,-67.82372322
1574186583.8063169,13.379188060760498,-9.763986e-06,-70.94562932
1574186583.8542986,13.427169799804688,-9.405427e-06,-69.64764574
1574186583.9021645,13.475035667419434,-9.165145e-06,-68.7778249
1574186583.9502733,13.523144483566284,-9.884126e-06,-71.38053612
1574186583.9982646,13.571135759353638,-9.052455e-06,-68.3698871
1574186584.0462515,13.619122743606567,-9.602867e-06,-70.36237854000001
1574186584.0944433,13.667314529418945,-9.071082e-06,-68.43731684
1574186584.1393352,13.712206363677979,-8.789822e-06,-67.41915564
1574186584.1873188,13.7601900100708,-9.384006e-06,-69.57010172
1574186584.2352643,13.808135509490967,-8.380041e-06,-65.93574842
1574186584.2831688,13.856040000915527,-9.212643e-06,-68.94976765999999
1574186584.3311586,13.904029846191406,-9.067357e-06,-68.42383233999999
1574186584.379179,13.95205020904541,-9.046867e-06,-68.34965854000001
1574186584.4272606,14.000131845474243,-9.849668e-06,-71.25579816000001
1574186584.4752429,14.04811406135559,-9.250827e-06,-69.08799374
1574186584.5232327,14.09610390663147,-9.739771e-06,-70.85797102000001
1574186584.5712194,14.14409065246582,-9.471551e-06,-69.88701462
1574186584.619204,14.192075252532959,-9.393319e-06,-69.60381478
1574186584.6670613,14.239932537078857,-9.783544e-06,-71.01642928000001
