Time, Time Since Begin, V/V Raw Data, Force 
1574184892.2296827,0.25835204124450684,-4.4126064e-05,-195.33635167999998
1574184892.2696686,0.2983379364013672,-4.415866e-05,-195.4543492
1574184892.3095767,0.33824610710144043,-4.4431537e-05,-196.44216393999997
1574184892.3495705,0.37823987007141113,-4.4618733e-05,-197.11981346
1574184892.3976393,0.42630863189697266,-4.4847839e-05,-197.94917718
1574184892.4376295,0.46629881858825684,-4.4896267e-05,-198.12448654
1574184892.477618,0.5062873363494873,-4.4809654e-05,-197.81094747999998
1574184892.517569,0.5462384223937988,-4.4580549e-05,-196.98158737999998
1574184892.5654662,0.5941355228424072,-4.4312328e-05,-196.01062736
1574184892.6054623,0.634131669998169,-4.4167042e-05,-195.48469204
1574184892.6454475,0.674116849899292,-4.4006854e-05,-194.90481148
1574184892.6854327,0.714102029800415,-4.4134445e-05,-195.36669089999998
1574184892.7334921,0.7621614933013916,-4.4365413e-05,-196.20279506
1574184892.7734196,0.8020889759063721,-4.4653192e-05,-197.24455504
1574184892.8135116,0.8421809673309326,-4.488416e-05,-198.08065919999999
1574184892.853456,0.8821253776550293,-4.4879504e-05,-198.06380448
1574184892.901513,0.9301824569702148,-4.4858083e-05,-197.98626045999998
1574184892.9413996,0.9700689315795898,-4.4605695e-05,-197.0726159
1574184892.9813905,1.0100598335266113,-4.4387765e-05,-196.2837093
1574184893.0213792,1.050048589706421,-4.4071116e-05,-195.13743992
1574184893.0693684,1.0980377197265625,-4.4057146e-05,-195.08686852
1574184893.1093342,1.1380035877227783,-4.4135377e-05,-195.37006474
1574184893.1493168,1.1779861450195312,-4.4394284e-05,-196.30730807999998
1574184893.1893697,1.2180390357971191,-4.4588e-05,-197.00856
1574184893.2412922,1.2699615955352783,-4.4868328e-05,-198.02334736
1574184893.2774227,1.3060920238494873,-4.4909306e-05,-198.17168772
1574184893.317273,1.3459422588348389,-4.4810586e-05,-197.81432132
1574184893.3572745,1.38594388961792,-4.4584274e-05,-196.99507188
1574184893.4052582,1.4339275360107422,-4.4408254e-05,-196.35787948
1574184893.4453738,1.4740431308746338,-4.4085085e-05,-195.18800769999999
1574184893.4852345,1.5139038562774658,-4.3992884e-05,-194.85424007999998
1574184893.525235,1.5539042949676514,-4.4111162e-05,-195.28240644
1574184893.573216,1.6018853187561035,-4.4015236e-05,-194.93515431999998
1574184893.6132,1.641869306564331,-1.8050894e-05,-100.94423628000001
1574184893.653278,1.6819474697113037,2.2822991e-05,47.01922742
1574184893.6932304,1.7218997478485107,0.000101577491,332.11051741999995
1574184893.7411687,1.7698380947113037,0.000221833587,767.43758494
1574184893.7891638,1.8178331851959229,0.000362077728,1275.12137536
1574184893.8372297,1.8658990859985352,0.000462167896,1637.44778352
1574184893.8851612,1.9138305187225342,0.000495241024,1757.1725068800001
1574184893.9331484,1.961817741394043,0.000494235195,1753.5314059
1574184893.9812353,2.009904623031616,0.000493755564,1751.7951416800001
1574184894.0292318,2.05790114402771,0.0004941402,1753.187524
1574184894.0770843,2.1057536602020264,0.00049323868,1749.9240216
1574184894.1251001,2.1537694931030273,0.000493795611,1751.9401118200003
1574184894.1731932,2.2018625736236572,0.000493383966,1750.44995692
1574184894.221176,2.249845266342163,0.000493121333,1749.49922546
1574184894.2691653,2.297834634780884,0.000493690372,1751.55914664
1574184894.3185418,2.3472111225128174,0.000492805615,1748.3563262999999
1574184894.3664255,2.395094871520996,0.000493468717,1750.75675554
1574184894.4142911,2.442960500717163,0.000493178144,1749.70488128
1574184894.4623945,2.4910638332366943,0.000492857769,1748.5451237800003
1574184894.5103872,2.5390565395355225,0.000474717468,1682.8772341600002
1574184894.5582426,2.586911916732788,0.000410437584,1450.1840540800001
1574184894.6062305,2.634899854660034,0.000324071385,1137.5384137
1574184894.6543505,2.6830198764801025,0.000226411968,784.01132416
1574184894.702338,2.7310073375701904,0.000133301131,446.95009422
1574184894.7503242,2.778993606567383,5.9880316e-05,181.16674392000002
1574184894.7983124,2.826981782913208,1.6230159e-05,23.153175580000003
1574184894.8461986,2.8748679161071777,-1.7954968e-05,-100.59698416
1574184894.8941772,2.922846555709839,-3.1198375e-05,-148.5381175
1574184894.9422762,2.9709455966949463,-2.9951334e-05,-144.02382907999998
1574184894.9901333,3.0188026428222656,-2.716016e-05,-133.9197792
1574184895.0381267,3.066796064376831,-2.786424e-05,-136.4685488
1574184895.0861156,3.1147849559783936,-2.7243048e-05,-134.21983376
1574184895.1341035,3.1627728939056396,-2.7284957e-05,-134.37154433999999
1574184895.1793017,3.2079710960388184,-2.7668662e-05,-135.76055644000002
1574184895.2272913,3.255960702896118,-2.728682e-05,-134.3782884
1574184895.2752736,3.303942918777466,-2.7241185e-05,-134.2130897
1574184895.3232617,3.351931095123291,-2.7235597e-05,-134.19286114
1574184895.3711293,3.399798631668091,-2.7173199e-05,-133.96698038
1574184895.4192414,3.447910785675049,-2.715271e-05,-133.89281019999999
1574184895.4672287,3.4958980083465576,-2.7133152e-05,-133.82201024
1574184895.5152125,3.543881893157959,-2.7169473e-05,-133.95349226
1574184895.5632,3.591869354248047,-2.7070753e-05,-133.59612586
1574184895.6111915,3.6398608684539795,-2.710335e-05,-133.714127
1574184895.659174,3.6878433227539062,-2.7097762e-05,-133.69389844
1574184895.7071674,3.7358367443084717,-2.7064234e-05,-133.57252708000001
1574184895.7550528,3.783722162246704,-2.7029775e-05,-133.4477855
1574184895.803145,3.8318142890930176,-2.7052127e-05,-133.52869974
1574184895.8510292,3.8796985149383545,-2.7034432e-05,-133.46464384
1574184895.89912,3.9277894496917725,-2.6994385e-05,-133.3196737
1574184895.9471087,3.975778102874756,-2.6978552e-05,-133.26235824
1574184895.9950953,4.023764610290527,-2.6973896e-05,-133.24550352
1574184896.043002,4.0716712474823,-2.699066e-05,-133.3061892
1574184896.090939,4.119608402252197,-2.694875e-05,-133.154475
1574184896.1389325,4.167601823806763,-2.6963651e-05,-133.20841662
1574184896.1869652,4.21563458442688,-2.6949681e-05,-133.15784521999998
1574184896.235039,4.2637083530426025,-2.7298927e-05,-134.42211574
1574184896.283022,4.3116912841796875,-2.6889145e-05,-132.9387049
1574184896.3310049,4.3596742153167725,-2.6649795e-05,-132.0722579
1574184896.378996,4.407665252685547,-2.7457252e-05,-134.99525224
1574184896.4388497,4.467519044876099,-2.6355498e-05,-131.00690276
1574184896.4748964,4.503565788269043,-2.7306378e-05,-134.44908836
1574184896.522836,4.5515053272247314,-2.6884489e-05,-132.92185018
1574184896.5709448,4.599614143371582,-2.6612543e-05,-131.93740566
1574184896.6189356,4.647604942321777,-2.737157e-05,-134.6850834
1574184896.6707938,4.699463129043579,-2.6316382e-05,-130.86530284
1574184896.718793,4.747462272644043,-2.7201138e-05,-134.06811956
1574184896.762902,4.791571378707886,-2.6881695e-05,-132.9117359
1574184896.8147547,4.843424081802368,-2.6564114e-05,-131.76209268
1574184896.8627563,4.891425609588623,-2.7342699e-05,-134.58057037999998
1574184896.906761,4.935430288314819,-2.6304275e-05,-130.8214755
1574184896.9587514,4.9874207973480225,-2.7183443e-05,-134.00406365999999
1574184897.0067108,5.035380125045776,-2.6894733e-05,-132.95893346
1574184897.0546985,5.083367824554443,-3.6955811e-05,-169.38003582
1574184897.0986903,5.127359628677368,-6.6928566e-05,-277.88140892
1574184897.146723,5.175392389297485,-0.000125087798,-488.41782876
1574184897.1986637,5.227333068847656,-0.000197675079,-751.18378598
1574184897.2427778,5.27144718170166,-0.000206866302,-784.4560132400001
1574184897.2946386,5.323307991027832,-0.000200976618,-763.13535716
1574184897.342621,5.371290445327759,-0.000198275782,-753.35833084
1574184897.3906095,5.419278860092163,-0.000194594264,-740.03123568
1574184897.4385955,5.467264890670776,-0.000193652697,-736.6227631400001
1574184897.4865837,5.515253067016602,-0.000191889703,-730.24072486
1574184897.5345745,5.563243865966797,-0.000190319493,-724.55656466
1574184897.582567,5.611236333847046,-0.000189828686,-722.77984332
1574184897.6305485,5.659217834472656,-0.000189047307,-719.95125134
1574184897.6785696,5.7072389125823975,-0.000188427977,-717.70927674
1574184897.7265239,5.75519323348999,-0.000187885948,-715.74713176
1574184897.7745678,5.803237199783325,-0.000187353231,-713.81869622
1574184897.8197942,5.848463535308838,-0.000186943449,-712.3352853800001
1574184897.8677764,5.8964457511901855,-0.000186536461,-710.8619888200001
1574184897.9157672,5.944436550140381,-0.000186190009,-709.60783258
1574184897.963753,5.992422342300415,-0.000185870565,-708.4514453
1574184898.0129297,6.0415990352630615,-0.000185590237,-707.43665794
1574184898.0609124,6.089581727981567,-0.000185994431,-708.89984022
1574184898.1087806,6.1374499797821045,-0.000184542499,-703.64384638
1574184898.1568918,6.185561180114746,-0.00018499326,-705.2756012
1574184898.204831,6.233500242233276,-0.000184754841,-704.4125244200001
1574184898.2527387,6.281408071517944,-0.000184005126,-701.69855612
1574184898.3007238,6.329393148422241,-0.000184772536,-704.47658032
1574184898.3488529,6.377522230148315,-0.000183477998,-699.79035276
1574184898.3967285,6.425397872924805,-0.000134705566,-523.23414892
1574184898.444816,6.473485469818115,-3.8521364e-05,-175.04733768
1574184898.4928064,6.521475791931152,5.6047924e-05,167.29348488000002
1574184898.54079,6.569459438323975,0.000225435011,780.47473982
1574184898.5899346,6.618603944778442,0.00041443482,1464.6540484000002
1574184898.6377912,6.6664605140686035,0.00054876972,1950.9463864000002
1574184898.6859121,6.714581489562988,0.000587084331,2089.64527822
1574184898.7337978,6.7624671459198,0.00058297161,2074.7572282
1574184898.7818966,6.810565948486328,0.00058054924,2065.9882488
1574184898.8298697,6.85853910446167,0.000580655411,2066.3725878200003
1574184898.8778613,6.9065306186676025,0.000579437241,2061.9628124200003
1574184898.9258509,6.954520225524902,0.000578907318,2060.04449116
1574184898.9737074,7.0023767948150635,0.000579176471,2061.01882502
1574184899.021827,7.050496339797974,0.000577839091,2056.17750942
1574184899.0696821,7.09835147857666,0.00057860557,2058.9521634000002
1574184899.1177,7.146369457244873,0.000567102805,2017.3121541
1574184899.16571,7.1943793296813965,0.000502077863,1781.92186406
1574184899.2137768,7.242446184158325,0.000401923433,1419.36282746
1574184899.2616794,7.290348768234253,0.00028178934,984.4774108
1574184899.3097532,7.338422536849976,0.000163904391,557.73389542
1574184899.3576548,7.386324167251587,6.4501539e-05,197.89557118
1574184899.4057276,7.434396982192993,3.472902e-06,-23.028094760000002
1574184899.4537158,7.482385158538818,-3.6723912e-05,-168.54056144
1574184899.5017047,7.530374050140381,-5.8119185e-05,-245.9914497
1574184899.5496912,7.578360557556152,-5.5563636e-05,-236.74036232
1574184899.5976768,7.626346111297607,-5.5298209e-05,-235.77951658
1574184899.6455445,7.674213886260986,-5.5328943e-05,-235.89077366
1574184899.6935241,7.722193479537964,-5.4366887e-05,-232.40813094
1574184899.7416425,7.7703118324279785,-5.5304728e-05,-235.80311536
1574184899.789632,7.818301439285278,-5.4260716e-05,-232.02379191999998
1574184899.837834,7.8665032386779785,-5.4583885e-05,-233.1936637
1574184899.8857405,7.914409875869751,-5.4796226e-05,-233.96233812
1574184899.9338078,7.962477207183838,-5.3891912e-05,-230.68872144
1574184899.9817972,8.010466575622559,-5.4896809e-05,-234.32644857999998
1574184900.029654,8.058323383331299,-5.3967349e-05,-230.96180338
1574184900.0776565,8.10632586479187,-5.424954e-05,-231.9833348
1574184900.1257582,8.154427528381348,-5.4586679e-05,-233.20377797999998
1574184900.1737328,8.202402114868164,-4.8741698e-05,-212.04494676000002
1574184900.2217364,8.25040578842163,-8.993782e-06,-68.15749084000001
1574184900.2696815,8.298350811004639,6.0423277e-05,183.13226274
1574184900.317584,8.346253395080566,0.000183512457,628.71509434
1574184900.3656998,8.394369125366211,0.000330209732,1159.75922984
1574184900.4135604,8.442229747772217,0.000451155938,1597.58449556
1574184900.4616694,8.490338802337646,0.000504606403,1791.07517886
1574184900.5096617,8.538331031799316,0.000505852513,1795.5860970600002
1574184900.5575225,8.586191892623901,0.000505231321,1793.3373820200002
1574184900.6056411,8.634310483932495,0.000504518859,1790.75826958
1574184900.6534965,8.68216586112976,0.000505272299,1793.48572238
1574184900.7015274,8.730196714401245,0.00050411839,1789.3085718
1574184900.7494984,8.778167724609375,0.000504679047,1791.3381501400002
1574184900.797585,8.82625436782837,0.000504492782,1790.6638708399998
1574184900.8454745,8.874143838882446,0.000503891148,1788.48595576
1574184900.8934317,8.922101020812988,0.00050475169,1791.6011177999999
1574184900.9414492,8.970118522644043,0.000503461808,1786.93174496
1574184900.98954,9.018209457397461,0.000472946092,1676.46485304
1574184901.0374124,9.066081762313843,0.000399938785,1412.1784017000002
1574184901.0853853,9.114054679870605,0.000305234455,1069.3487271000001
1574184901.1333714,9.162040710449219,0.000205055811,706.70203582
1574184901.1814184,9.210087776184082,0.000112777576,372.65482511999994
1574184901.2303696,9.259038925170898,5.1897019e-05,152.26720878
1574184901.2782748,9.306944131851196,9.045005e-06,-2.8570819000000043
1574184901.326341,9.355010271072388,-2.0729378e-05,-110.64034836000002
1574184901.3742003,9.402869701385498,-2.5101937e-05,-126.46901194
1574184901.4221966,9.450865983963013,-2.3074448e-05,-119.12950175999998
1574184901.470176,9.498845338821411,-2.23713e-05,-116.58410599999999
1574184901.518193,9.546862363815308,-2.2254884e-05,-116.16268008
1574184901.566283,9.59495234489441,-2.2812746e-05,-118.18214051999999
1574184901.6141686,9.64283800125122,-2.1722168e-05,-114.23424815999999
1574184901.6621268,9.690796136856079,-2.2680499e-05,-117.70340638000002
1574184901.710144,9.738813400268555,-2.210401e-05,-115.6165162
1574184901.7582295,9.786898851394653,-2.1953136e-05,-115.07035232000001
1574184901.8062236,9.834892988204956,-2.2538938e-05,-117.19095555999999
1574184901.854211,9.882880449295044,-2.1521002e-05,-113.50602724000001
1574184901.9022021,9.930871486663818,-2.2467226e-05,-116.93135812
1574184901.9500997,9.978769063949585,-2.1980144e-05,-115.16812128000001
1574184901.9981706,10.026839971542358,-2.1733344e-05,-114.27470528
1574184902.046157,10.07482624053955,-2.2481196e-05,-116.98192952
1574184902.0940273,10.1226966381073,-2.1397136e-05,-113.05763232000001
1574184902.142146,10.170815467834473,-2.2344291e-05,-116.48633342
1574184902.1901217,10.218791007995605,-2.1890737e-05,-114.84446794000002
1574184902.23801,10.266679286956787,-2.1586195e-05,-113.74202589999999
1574184902.2861006,10.314769983291626,-2.2395514e-05,-116.67176068
1574184902.333956,10.362625360488892,-2.132915e-05,-112.811523
1574184902.382077,10.410746335983276,-2.2217631e-05,-116.02782422000001
1574184902.4299612,10.458630561828613,-2.1794811e-05,-114.49721582000001
1574184902.4780495,10.506718873977661,-2.1488406e-05,-113.38802971999999
1574184902.5260391,10.554708480834961,-2.2327527e-05,-116.42564773999999
1574184902.5740237,10.6026930809021,-2.1242537e-05,-112.49798394000001
1574184902.622016,10.65068531036377,-2.2066757e-05,-115.48166033999999
1574184902.670002,10.698671340942383,-2.1807849e-05,-114.54441338000001
1574184902.7179935,10.746662855148315,-2.152659e-05,-113.5262558
1574184902.7659743,10.794643640518188,-2.2165477e-05,-115.83902674000001
1574184902.813968,10.842637300491333,-2.1328218e-05,-112.80814916
1574184902.8619509,10.890620231628418,-2.1947548e-05,-115.05012375999999
1574184902.9099414,10.938610792160034,-2.1719374e-05,-114.22413388000001
1574184902.957827,10.986496448516846,-2.1453947e-05,-113.26328814000001
1574184903.0059142,11.034583568572998,-2.2074208e-05,-115.50863296
1574184903.0537775,11.082446813583374,-2.136454e-05,-112.9396348
1574184903.1017668,11.130436182022095,-2.1869317e-05,-114.76692754000001
1574184903.1498754,11.178544759750366,-2.1686777e-05,-114.10613273999999
1574184903.1978645,11.226533889770508,-2.1513551e-05,-113.47905462
1574184903.24577,11.274439334869385,-2.1925196e-05,-114.96920951999999
1574184903.2938466,11.322515964508057,-2.1468848e-05,-113.31722976
Time, Time Since Begin, V/V Raw Data, Force 
