Time, Time Since Begin, V/V Raw Data, Force 
1574185685.1613526,0.24099969863891602,-0.000127981417,-498.89272954000006
1574185685.2093408,0.2889878749847412,-0.000128079206,-499.24672572000003
1574185685.249391,0.329038143157959,-0.000124402344,-485.93648528
1574185685.2894528,0.36909985542297363,-3.7594698e-05,-171.69280676
1574185685.3293405,0.40898752212524414,4.4861808e-05,126.79974496
1574185685.3784187,0.4580657482147217,0.000172003172,587.0514826399999
1574185685.4177494,0.49739646911621094,0.000316523015,1110.2133143
1574185685.4577403,0.5373873710632324,0.000455745496,1614.19869552
1574185685.4977307,0.5773777961730957,0.000582586043,2073.36147566
1574185685.5455875,0.6252346038818359,0.000696585514,2486.0395606800002
1574185685.5855768,0.6652238368988037,0.000794393942,2840.1060700400003
1574185685.6255693,0.7052164077758789,0.000871452503,3119.0580608600003
1574185685.6655855,0.7452325820922852,0.000918220729,3288.35903898
1574185685.7135437,0.7931907176971436,0.000923049636,3305.83968232
1574185685.753535,0.8331820964813232,0.000920092687,3295.13552694
1574185685.7935317,0.8731787204742432,0.000918583944,3289.67387728
1574185685.8335185,0.9131655693054199,0.000917683356,3286.41374872
1574185685.8816307,0.9612777233123779,0.000917020254,3284.01331948
1574185685.9214928,1.0011398792266846,0.000916613266,3282.54002292
1574185685.961489,1.0411360263824463,0.000916216522,3281.1038096400002
1574185686.001477,1.0811240673065186,0.000915809534,3279.63051308
1574185686.049457,1.1291041374206543,0.000915422104,3278.22801648
1574185686.0895805,1.1692276000976562,0.000904736109,3239.54471458
1574185686.1294396,1.2090866565704346,0.000816293061,2919.38088082
1574185686.1694272,1.2490742206573486,0.000664974563,2371.60791806
1574185686.217424,1.2970709800720215,0.000480785966,1704.84519692
1574185686.2574568,1.3371038436889648,0.000285562128,998.1349033599998
1574185686.2974038,1.3770508766174316,0.000105774961,347.30535882
1574185686.3375185,1.4171655178070068,-7.4571e-06,-62.594702
1574185686.3855097,1.4651567935943604,-8.8118017e-05,-354.58722154000003
1574185686.433364,1.5130109786987305,-0.000169906765,-650.6624893000001
1574185686.465355,1.5450019836425781,-0.000209902413,-795.4467350599999
1574185686.5034492,1.5830962657928467,-0.000205665827,-780.1102937400001
1574185686.551533,1.6311800479888916,-0.000190389343,-724.80942166
1574185686.5913959,1.6710429191589355,-0.000172510743,-660.0888896600001
1574185686.6314614,1.7111084461212158,-0.000155637972,-599.00945864
1574185686.6793687,1.7590157985687256,-0.000139556825,-540.7957065
1574185686.727434,1.8070809841156006,-0.00012600515,-491.738643
1574185686.7754323,1.8550794124603271,-0.000117049553,-459.31938186
1574185686.823334,1.9029810428619385,-0.00010798499,-426.50566380000004
1574185686.871454,1.9511010646820068,-1.5988946e-05,-93.47998452000002
1574185686.919448,1.9990949630737305,8.9659356e-05,288.96686872
1574185686.9674292,2.0470762252807617,0.000248732045,864.8100029000001
1574185687.0154157,2.095062732696533,0.000411649235,1454.5702307000001
1574185687.0632794,2.1429264545440674,0.000561223365,1996.0285813
1574185687.1113582,2.191005229949951,0.000691899098,2469.07473476
1574185687.1592805,2.2389276027679443,0.000801405869,2865.48924578
1574185687.2072349,2.286881923675537,0.000884742476,3167.1677631200005
1574185687.2553546,2.3350017070770264,0.000923160464,3306.24087968
1574185687.3033423,2.3829894065856934,0.000920281745,3295.8199169
1574185687.3513255,2.4309725761413574,0.000917680562,3286.40363444
1574185687.3993175,2.4789645671844482,0.000916779041,3283.14012842
1574185687.4471755,2.526822566986084,0.000915815122,3279.65074164
1574185687.495292,2.574939012527466,0.000915104523,3277.0783732600003
1574185687.5432806,2.622927665710449,0.000914977863,3276.61986406
1574185687.5912645,2.6709115505218506,0.000914258882,3274.01715284
1574185687.6391551,2.7188022136688232,0.000914243981,3273.96321122
1574185687.6872454,2.766892433166504,0.000913907774,3272.74614188
1574185687.73513,2.814777135848999,0.000913585536,3271.57964032
1574185687.7830908,2.8627378940582275,0.000913714059,3272.04489358
1574185687.8310819,2.910728931427002,0.000886059366,3171.93490492
1574185687.881376,2.9610230922698975,0.000755660236,2699.89005432
1574185687.929369,3.0090160369873047,0.000560319982,1992.7583348399999
1574185687.9773571,3.05700421333313,0.000338757411,1190.70182782
1574185688.0252101,3.1048572063446045,0.00012669526,423.0368412
1574185688.073316,3.152963161468506,-7.955357e-06,-64.39839234
1574185688.1213179,3.20096492767334,-0.000100794248,-400.47517776
1574185688.1691754,3.2488224506378174,-0.000182305463,-695.54577606
1574185688.2172794,3.296926498413086,-0.000208200887,-789.28721094
1574185688.265253,3.344900131225586,-0.000196699053,-747.65057186
1574185688.3144178,3.3940649032592773,-0.000182727352,-697.07301424
1574185688.3622806,3.441927671432495,-0.000164246187,-630.1711969400001
1574185688.4103932,3.4900403022766113,-8.7564811e-05,-352.58461582
1574185688.4583833,3.5380303859710693,1.3811514e-05,14.39768068
1574185688.504572,3.584218978881836,0.000155841932,528.5477938399999
1574185688.5526445,3.632291555404663,0.000320241787,1123.6752689400003
1574185688.6005056,3.680152654647827,0.000479285605,1699.4138901000001
1574185688.6497564,3.729403495788574,0.000620592386,2210.94443732
1574185688.694895,3.7745420932769775,0.000742566772,2652.4917146400003
1574185688.7430232,3.8226702213287354,0.00084097404,3008.7260248000002
1574185688.7908878,3.870534896850586,0.000900493003,3224.18467086
1574185688.8388662,3.918513298034668,0.000905415975,3242.0058295000003
1574185688.8869076,3.966554641723633,0.000902550295,3231.6320679
1574185688.9348872,4.01453423500061,0.000900991261,3225.9883648200002
1574185688.982962,4.062608957290649,0.000900408253,3223.87787586
1574185689.0309477,4.110594749450684,0.0008994909,3220.557058
1574185689.0789378,4.158584833145142,0.000899245031,3219.6670122200003
1574185689.1274128,4.207059860229492,0.000898869708,3218.30834296
1574185689.175269,4.254915952682495,0.000898417085,3216.6698477
1574185689.2232866,4.302933692932129,0.000868291594,3107.61557028
1574185689.271298,4.350944995880127,0.000738274306,2636.9529877200002
1574185689.3193648,4.399011850357056,0.000548571348,1950.22827976
1574185689.3672292,4.446876287460327,0.000334466808,1175.16984496
1574185689.4153388,4.494985818862915,0.000128508545,429.6009328999999
1574185689.4633284,4.542975425720215,-2.505258e-06,-44.66903396
1574185689.5113165,4.59096360206604,-9.2866831e-05,-371.77792822000004
1574185689.5593047,4.638951778411865,-0.000172029249,-658.34588138
1574185689.607208,4.68685507774353,-0.00019773934,-751.4164108
1574185689.6575618,4.737208843231201,-0.000181833282,-693.83648084
1574185689.7055526,4.7851996421813965,-0.000108391978,-427.97896036000003
1574185689.7534227,4.833069801330566,-6.64964e-07,-38.007169680000004
1574185689.801518,4.881165027618408,0.000132530928,444.16195936
1574185689.84939,4.929037094116211,0.000297196209,1040.25027658
1574185689.8975005,4.977147579193115,0.000457876362,1621.91243044
1574185689.9454834,5.0251305103302,0.000603002496,2147.26903552
1574185689.9933734,5.0730204582214355,0.000729280524,2604.39549688
1574185690.0413613,5.121008396148682,0.000833566301,2981.91000962
1574185690.089454,5.169100999832153,0.000910008326,3258.6301401200003
1574185690.1374354,5.217082500457764,0.000933925621,3345.2107480199998
1574185690.1853242,5.2649712562561035,0.000929984264,3330.9430356800003
1574185690.2332916,5.312938690185547,0.000927927904,3323.49901248
1574185690.2813995,5.361046552658081,0.000927082263,3320.43779206
1574185690.3293934,5.409040451049805,0.000926289707,3317.56873934
1574185690.378437,5.4580841064453125,0.000925641507,3315.22225534
1574185690.4264452,5.506092309951782,0.000925428234,3314.45020708
1574185690.474446,5.5540931224823,0.000924783759,3312.11720758
1574185690.5195165,5.59916353225708,0.000924746506,3311.98235172
1574185690.567506,5.64715313911438,0.000924477354,3311.00802148
1574185690.6153615,5.6950085163116455,0.00092103146,3298.5338852
1574185690.6634789,5.743125915527344,0.000831161626,2973.20508612
1574185690.7114706,5.7911176681518555,0.000654811971,2334.81933502
1574185690.7594602,5.839107275009155,0.00043733418,1547.5497316
1574185690.8074474,5.887094497680664,0.000210748054,727.3079554799999
1574185690.855307,5.9349541664123535,3.8057566e-05,102.16838892000001
1574185690.903296,5.982943058013916,-6.2951818e-05,-263.48558116
1574185690.951404,6.031051158905029,-0.000160906464,-618.08139968
1574185690.999397,6.0790441036224365,-0.000212245621,-803.92914802
1574185691.0473835,6.127030611038208,-0.000202609226,-769.04539812
1574185691.0953765,6.175023555755615,-0.000181630254,-693.10151948
1574185691.1432765,6.222923517227173,-0.000158184208,-608.22683296
1574185691.1912143,6.270861387252808,-0.000136212446,-528.68905452
1574185691.2392051,6.318852186203003,-0.000117552467,-461.13993054
1574185691.2886066,6.368253707885742,-3.8670376e-05,-175.58676112
1574185691.3365972,6.416244268417358,5.8568083e-05,176.41646046
1574185691.3845854,6.464232444763184,0.00021171663,730.8142006
1574185691.4324872,6.512134313583374,0.000377121381,1329.5793992200001
1574185691.4825232,6.5621702671051025,0.00053105969,1886.8360778
1574185691.5305293,6.61017632484436,0.000667153858,2379.49696596
1574185691.5785155,6.658162593841553,0.000781849027,2794.69347774
1574185691.6264691,6.706116199493408,0.000875294209,3132.9650365800003
1574185691.6744564,6.754103422164917,0.000931843184,3337.6723260800004
1574185691.7224514,6.802098512649536,0.000935353339,3350.37908718
1574185691.770438,6.850085020065308,0.000932391733,3339.65807346
1574185691.818451,6.898097991943359,0.000930891372,3334.2267666400003
1574185691.8664055,6.946052551269531,0.000930180773,3331.65439826
1574185691.9143941,6.994041204452515,0.000929321162,3328.54260644
1574185691.9624627,7.042109727859497,0.00092903804,3327.5177048
1574185692.010463,7.0901100635528564,0.000928568654,3325.8185274800003
1574185692.0584636,7.138110637664795,0.000928184949,3324.42951538
1574185692.1064641,7.186111211776733,0.000911289826,3263.26917012
1574185692.1543777,7.2340247631073,0.000790498219,2826.00355278
1574185692.2023246,7.28197169303894,0.000595983118,2121.85888716
1574185692.250341,7.3299880027771,0.000369039364,1300.32249768
1574185692.2983017,7.377948760986328,0.000145739876,491.97835111999996
1574185692.3464196,7.426066637039185,5.588e-09,-35.57977144
1574185692.3942838,7.473930835723877,-9.9991448e-05,-397.56904176
1574185692.4422617,7.521908760070801,-0.000188961625,-719.6410825
1574185692.4903,7.569947004318237,-0.000220241956,-832.87588072
1574185692.5383656,7.6180126667022705,-0.00021099858,-799.4148596
1574185692.5863612,7.666008234024048,-0.000193716958,-736.85538796
1574185692.6343563,7.714003324508667,-0.000173065811,-662.09823582
1574185692.6789553,7.7586023807525635,-0.000150110573,-579.00027426
1574185692.7269466,7.806593656539917,-0.000129578635,-504.6746587
1574185692.7749312,7.854578256607056,-0.000113117509,-445.08538258
1574185692.8229184,7.9025654792785645,-8.831732e-05,-355.3086984
1574185692.8708055,7.950452566146851,-2.97092e-07,-36.67547304
1574185692.918766,7.9984130859375,0.000132925808,445.5914249599999
1574185692.9672902,8.046937227249146,0.000297388993,1040.94815466
1574185693.0153198,8.094966888427734,0.000457775779,1621.54831998
1574185693.0632863,8.142933368682861,0.000601720065,2142.6266353
1574185693.1112766,8.190923690795898,0.000725569203,2590.96051486
1574185693.1592333,8.238880395889282,0.000826720148,2957.1269357600004
1574185693.2072191,8.286866188049316,0.0009048637,3240.006594
1574185693.2552667,8.334913730621338,0.000934932381,3348.85521922
1574185693.3032005,8.382847547531128,0.000930877402,3334.17619524
1574185693.3534517,8.433098793029785,0.000928562135,3325.7949287
1574185693.4015825,8.481229543685913,0.000927606598,3322.33588476
1574185693.4495625,8.529209613800049,0.000926699489,3319.0521501800004
1574185693.4975502,8.577197313308716,0.000926142558,3317.03605996
1574185693.5455003,8.625147342681885,0.000921768136,3301.2006523200002
1574185693.5934074,8.673054456710815,0.000827285461,2959.17336882
1574185693.6423116,8.721958637237549,0.000647946261,2309.96546482
1574185693.6903546,8.770001649856567,0.00042496901,1502.7878162
1574185693.7354653,8.815112352371216,0.000195656903,672.6779888599999
1574185693.7835763,8.863223314285278,2.8019771e-05,65.83157101999998
1574185693.8315651,8.91121220588684,-7.5193122e-05,-307.79910164
1574185693.8794656,8.959112644195557,-0.000174194574,-666.18435788
1574185693.927539,9.0071861743927,-0.000222147442,-839.77374004
1574185693.975442,9.055088996887207,-0.000212989748,-806.62288776
1574185694.0233917,9.103038787841797,-0.000192777254,-733.45365948
1574185694.0714214,9.151068449020386,-0.000169387087,-648.7812549399999
1574185694.1194918,9.199138879776001,-0.000144550577,-558.87308874
1574185694.167377,9.247024059295654,-0.00012224447,-478.1249814
1574185694.2153454,9.294992446899414,-0.00010443572,-413.6573064
1574185694.2634518,9.343098878860474,-9.2129223e-05,-369.10778726
1574185694.3113568,9.391003847122192,-8.8364817e-05,-355.48063754000003
1574185694.3593066,9.438953638076782,-4.087761e-05,-183.57694819999998
1574185694.4073327,9.486979722976685,5.1773153e-05,151.81881386
1574185694.4554026,9.535049676895142,0.000201626681,694.2885852200001
1574185694.5033076,9.58295464515686,0.000367498957,1294.74622434
1574185694.551279,9.630926132202148,0.000520989299,1850.3812623800002
1574185694.599286,9.678933143615723,0.000658217818,2347.1485011600003
1574185694.649595,9.729242086410522,0.00077293627,2762.4292974
1574185694.6975825,9.77722954750061,0.000867468305,3104.6352641000003
1574185694.7455695,9.82521653175354,0.000928661786,3326.15566532
1574185694.7935548,9.873201847076416,0.00093472749,3348.1135138
1574185694.8415012,9.921148300170898,0.000931872055,3337.7768391000004
1574185694.8894157,9.969062805175781,0.000930225477,3331.81622674
1574185694.937474,10.017121076583862,0.000929270871,3328.36055302
1574185694.986336,10.065983057022095,0.000893765129,3199.82976698
1574185695.034226,10.11387300491333,0.000752234831,2687.49008822
1574185695.082312,10.161959171295166,0.000547131523,1945.0161132600003
1574185695.1303058,10.20995283126831,0.000316605903,1110.5133688600001
1574185695.1781604,10.257807493209839,0.00010096468,329.89214159999995
1574185695.2261648,10.305811882019043,-2.9077753e-05,-140.86146586
1574185695.274268,10.353914976119995,-0.000127819367,-498.30610853999997
1574185695.3222542,10.401901245117188,-0.000206833705,-784.3380121
1574185695.3702397,10.449886798858643,-0.000221444294,-837.22834428
1574185695.4182298,10.4978768825531,-0.000204818323,-777.0423292600001
1574185695.4660892,10.545736312866211,-0.000182708725,-697.0055844999999
1574185695.5140781,10.593725204467773,-0.000158119947,-607.9942081400001
1574185695.5620618,10.641708850860596,-0.000133992173,-520.65166626
1574185695.6101797,10.689826726913452,-0.000112740323,-443.71996926
1574185695.6580412,10.737688302993774,-9.5758587e-05,-382.24608494
1574185695.7061558,10.785802841186523,-8.2734041e-05,-335.09722842
1574185695.7541456,10.833792686462402,-1.0360032e-05,-73.10331584
1574185695.8020039,10.881650924682617,0.000109218061,359.76938082
1574185695.8501186,10.929765701293945,0.000271478668,947.15277816
1574185695.8952541,10.97490119934082,0.000432907604,1531.52552648
1574185695.9432714,11.022918462753296,0.000580892898,2067.23229076
1574185695.9912446,11.070891618728638,0.000708250329,2528.26619098
1574185696.0392709,11.11891794204712,0.0008137431,2910.1500220000003
1574185696.0883214,11.167968511581421,0.00089775864,3214.2862768
1574185696.1363902,11.216037273406982,0.000936379656,3354.09435472
1574185696.1842897,11.263936758041382,0.000932440162,3339.83338644
1574185696.2323282,11.311975240707397,0.000929989852,3330.9632642399997
1574185696.2803988,11.360045909881592,0.000928944908,3327.18056696
1574185696.3282523,11.407899379730225,0.000928089954,3324.08563348
1574185696.3762734,11.455920457839966,0.000918722712,3290.17621744
1574185696.424251,11.50389814376831,0.000812344253,2905.08619586
1574185696.4722452,11.551892280578613,0.000627511181,2235.99047522
1574185696.5202494,11.599896430969238,0.00040271692,1422.2352504000003
1574185696.5683167,11.647963762283325,0.000175960362,601.37651044
1574185696.6162686,11.695915699005127,1.6014092e-05,22.37101304
1574185696.6642995,11.743946552276611,-8.5811131e-05,-346.23629422000005
1574185696.7121837,11.791830778121948,-0.000184633769,-703.97424378
1574185696.7612379,11.840884923934937,-0.000225345604,-851.35108648
1574185696.8073149,11.886961936950684,-0.000210883096,-798.9968075200001
1574185696.8553047,11.934951782226562,-0.000188887119,-719.37137078
1574185696.9032862,11.982933282852173,-0.000162907876,-625.3265111200001
1574185696.9511936,12.030840635299683,-0.000137650408,-533.89447696
1574185697.000444,12.080090999603271,-0.000114475377,-450.00086474000005
1574185697.0504744,12.13012146949768,-9.5836818e-05,-382.52928116000004
1574185697.0957074,12.175354480743408,-8.347258e-05,-337.7707396
1574185697.143698,12.223345041275024,-7.6130033e-05,-311.19071946
1574185697.1915822,12.271229267120361,-7.5777061e-05,-309.91296082
1574185697.239541,12.319188117980957,-7.5526536e-05,-309.00606032
1574185697.2875273,12.36717438697815,-7.57128e-05,-309.680336
1574185697.3364627,12.416109800338745,-7.5757504e-05,-309.84216448000006
1574185697.3843184,12.46396541595459,-7.5541437e-05,-309.06000194
1574185697.4332812,12.512928247451782,-7.581152e-05,-310.03770240000006
1574185697.4812584,12.560905456542969,-7.5539574e-05,-309.05325788000005
Time, Time Since Begin, V/V Raw Data, Force 
