Time, Time Since Begin, V/V Raw Data, Force 
1574181570.4733179,0.2559385299682617,0.000196120702,674.35694124
1574181570.5133562,0.2959768772125244,0.000196155161,674.48168282
1574181570.5533566,0.33597731590270996,0.000196150504,674.46482448
1574181570.6014123,0.3840329647064209,0.000196181238,674.5760815599999
1574181570.641272,0.4238927364349365,0.000196145847,674.44796614
1574181570.6813943,0.46401500701904297,0.000196163543,674.5120256600001
1574181570.7213826,0.5040032863616943,0.000196182169,674.5794517799999
1574181570.76929,0.5519106388092041,0.000196168199,674.52888038
1574181570.809358,0.5919785499572754,0.000196167268,674.52551016
1574181570.8492672,0.6318879127502441,0.000196164474,674.51539588
1574181570.8892257,0.6718463897705078,0.000196186826,674.59631012
1574181570.937198,0.7198185920715332,0.000196136534,674.41425308
1574181570.9772167,0.7598373889923096,0.000196116045,674.3400829
1574181571.0171778,0.7997984886169434,0.000196188688,674.6030505599999
1574181571.0571964,0.8398170471191406,0.000196201727,674.65025174
1574181571.105156,0.8877766132354736,0.000196182169,674.5794517799999
1574181571.1451492,0.9277698993682861,0.000196216628,674.70419336
1574181571.1851852,0.9678058624267578,0.000196141191,674.43111142
1574181571.2251253,1.0077459812164307,0.00019614771,674.4547102
1574181571.2731423,1.0557630062103271,0.000196188688,674.6030505599999
1574181571.3131065,1.0957272052764893,0.000196202658,674.65362196
1574181571.3530955,1.135716199874878,0.000196186826,674.59631012
1574181571.3930817,1.1757023334503174,0.000196187757,674.59968034
1574181571.4410725,1.2236931324005127,0.000196174718,674.55247916
1574181571.4810898,1.2637104988098145,0.000196172856,674.54573872
1574181571.525045,1.3076655864715576,0.000196193345,674.6199088999999
1574181571.5610936,1.3437142372131348,0.000196157955,674.4917971
1574181571.609159,1.3917796611785889,0.000196171924,674.5423648799999
1574181571.6491487,1.4317693710327148,0.00019617565,674.555853
1574181571.6891391,1.4717597961425781,0.000196194276,674.62327912
1574181571.7291281,1.5117487907409668,0.000196179375,674.5693375000001
1574181571.7771156,1.5597362518310547,0.000196180306,674.57270772
1574181571.817106,1.599726676940918,0.000196159817,674.4985375399999
1574181571.857095,1.6397156715393066,0.000196179375,674.5693375000001
1574181571.8969607,1.6795814037322998,0.000196174718,674.55247916
1574181571.9449573,1.7275779247283936,0.00019618962,674.6064244
1574181571.9849272,1.767547845840454,0.000196199864,674.64350768
1574181572.032915,1.8155357837677002,0.000196216628,674.70419336
1574181572.080905,1.863525629043579,0.000196185894,674.59293628
1574181572.128893,1.9115135669708252,0.000196164474,674.51539588
1574181572.1768982,1.9595189094543457,0.000196187757,674.59968034
1574181572.2248683,2.007488965988159,0.00019619707,674.6333933999999
1574181572.2728744,2.055495023727417,0.00019622501,674.7345362
1574181572.3208458,2.103466510772705,0.000196338631,675.14584422
1574181572.3688328,2.1514534950256348,0.000195871107,673.45340734
1574181572.416948,2.199568748474121,0.000196686946,676.40674452
1574181572.4649234,2.247544050216675,0.000195723958,672.9207279599999
1574181572.512927,2.2955477237701416,0.000196262263,674.86939206
1574181572.5609126,2.3435332775115967,0.000196240842,674.79184804
1574181572.6089008,2.391521453857422,0.000195881352,673.49049424
1574181572.6568499,2.4394705295562744,0.000196581706,676.02577572
1574181572.7047777,2.487398386001587,0.00019584503,673.3590086
1574181572.7528694,2.535490036010742,0.000196233392,674.76487904
1574181572.7992032,2.5818238258361816,0.00019634515,675.169443
1574181572.8471918,2.629812479019165,0.000195824541,673.2848384199999
1574181572.8951774,2.67779803276062,0.000196588226,676.04937812
1574181572.9431295,2.725750207901001,0.000195880421,673.48712402
1574181572.9911551,2.773775815963745,0.000196293928,674.98401936
1574181573.0390553,2.821676015853882,0.000196320936,675.08178832
1574181573.0902162,2.8728368282318115,0.000191820785,658.7912417
1574181573.1362092,2.918829917907715,0.000150444917,509.01059954000004
1574181573.1842573,2.9668779373168945,0.000103137456,337.75759072
1574181573.2322774,3.0148980617523193,6.5838918e-05,202.73688316
1574181573.2802658,3.0628864765167236,3.5672449e-05,93.53426538000002
1574181573.328122,3.1107425689697266,1.9962899e-05,36.66569438
1574181573.37624,3.158860683441162,8.501112e-06,-4.825974560000002
1574181573.4240963,3.206717014312744,2.141111e-06,-27.849178180000003
1574181573.4721134,3.2547340393066406,2.631918e-06,-26.07245684
1574181573.5201218,3.3027424812316895,4.493631e-06,-19.33305578
1574181573.5681872,3.3508079051971436,5.438924e-06,-15.911095119999999
1574181573.6161788,3.398799419403076,6.278045e-06,-12.873477100000002
1574181573.664036,3.4466567039489746,6.884336e-06,-10.678703680000002
1574181573.712076,3.494696617126465,7.405877e-06,-8.790725260000002
1574181573.7601395,3.542760133743286,7.82311e-06,-7.280341799999999
1574181573.8080492,3.590669870376587,8.131377e-06,-6.164415260000002
1574181573.8561206,3.6387412548065186,8.426607e-06,-5.095682659999998
1574181573.904108,3.6867287158966064,8.631498e-06,-4.3539772400000025
1574181573.9520955,3.7347161769866943,8.877367e-06,-3.4639314599999977
1574181574.0000856,3.7827062606811523,8.997507e-06,-3.0290246599999975
1574181574.0480711,3.8306918144226074,9.221956e-06,-2.21651928
1574181574.0959585,3.8785791397094727,9.412877e-06,-1.5253852600000002
1574181574.1440463,3.9266669750213623,9.486452e-06,-1.2590437600000044
1574181574.1920338,3.97465443611145,9.645708e-06,-0.6825370399999997
1574181574.2400234,4.02264404296875,1.0014512e-05,0.6525334399999991
1574181574.2880123,4.0706329345703125,9.377487e-06,-1.6534970599999994
1574181574.3368092,4.11942982673645,1.0462478e-05,2.2741703599999994
1574181574.3847966,4.167417287826538,9.750016e-06,-0.30494208000000356
1574181574.432655,4.215275764465332,1.1575408e-05,6.302976959999995
1574181574.4806457,4.263266324996948,4.526414e-05,128.25618680000002
1574181574.5286722,4.311292886734009,8.1239268e-05,258.48615015999997
1574181574.576622,4.359242677688599,0.00011845585,393.210177
1574181574.62473,4.407350778579712,0.000154907815,525.1662903
1574181574.6727173,4.455338001251221,0.000196624547,676.1808601399999
1574181574.7207105,4.503331184387207,0.000239732675,832.2322835
1574181574.7685947,4.551215410232544,0.000281849876,984.69655112
1574181574.8166862,4.59930682182312,0.0003272295,1148.97079
1574181574.8646705,4.64729118347168,0.000371433794,1308.99033428
1574181574.9126608,4.695281505584717,0.000416021794,1470.3988942800001
1574181574.9606488,4.743269443511963,0.000460091047,1629.92959014
1574181575.010229,4.792849779129028,0.00050221663,1782.4242006
1574181575.0582364,4.840857028961182,0.000545072369,1937.56197578
1574181575.1062367,4.888857364654541,0.00058569666,2084.6219092
1574181575.1542373,4.9368579387664795,0.000625363551,2228.21605462
1574181575.2022388,4.984859466552734,0.000663830899,2367.46785438
1574181575.250239,5.032859563827515,0.00069958251,2496.8886862000004
1574181575.2982383,5.080858945846558,0.000735099427,2625.4599257400005
1574181575.3462396,5.128860235214233,0.000767817721,2743.90015002
1574181575.3913245,5.173945188522339,0.000799017027,2856.84163774
1574181575.4392657,5.221886396408081,0.000828021206,2961.83676572
1574181575.487259,5.269879579544067,0.000854698941,3058.41016642
1574181575.5353727,5.317993402481079,0.000882240012,3158.1088434400003
1574181575.58335,5.365970611572266,0.000906422734,3245.65029708
1574181575.6312242,5.41384482383728,0.000928780064,3326.58383168
1574181575.6792104,5.461831092834473,0.000947196037,3393.2496539400004
1574181575.7272203,5.509840965270996,0.000957733952,3431.39690624
1574181575.77518,5.557800769805908,0.000962191261,3447.53236482
1574181575.8231692,5.60578989982605,0.000959136523,3436.4742132600004
1574181575.8711843,5.6538050174713135,0.000957707874,3431.30250388
1574181575.9191396,5.701760292053223,0.000957011245,3428.7807069
1574181575.9672604,5.749881029129028,0.000955307856,3422.61443872
1574181576.01525,5.797870635986328,0.000955631025,3423.7843105
1574181576.063137,5.845757722854614,0.000954419374,3419.39813388
1574181576.1112287,5.8938493728637695,0.000954088755,3418.2012931
1574181576.1592126,5.941833257675171,0.000954234973,3418.73060226
1574181576.2072008,5.989821434020996,0.00095297955,3414.1859710000003
1574181576.2551446,6.037765264511108,0.00095356442,3416.3032004
1574181576.3031769,6.085797548294067,0.000952739269,3413.31615378
1574181576.351164,6.133784770965576,0.000952570699,3412.70593038
1574181576.3991451,6.181765794754028,0.000952879898,3413.82523076
1574181576.447009,6.229629755020142,0.000944888219,3384.89535278
1574181576.495003,6.277623653411865,0.00091598928,3280.2811936000003
1574181576.542986,6.32560658454895,0.000868187286,3107.2379753200003
1574181576.591022,6.373642683029175,0.000809183344,2893.64370528
1574181576.6390913,6.4217119216918945,0.000745953061,2664.75008082
1574181576.687082,6.46970272064209,0.000678570941,2420.82680642
1574181576.7350235,6.517644166946411,0.000612425618,2181.38073716
1574181576.7830548,6.565675497055054,0.000546370633,1942.26169146
1574181576.8309965,6.613617181777954,0.000483482145,1714.6053649
1574181576.8790305,6.661651134490967,0.000424963422,1502.76758764
1574181576.9270208,6.709641456604004,0.000369891524,1303.40731688
1574181576.9748843,6.757504940032959,0.000323531218,1135.58300916
1574181577.0228682,6.80548882484436,0.000282673165,987.6768572999999
1574181577.0709827,6.853603363037109,0.00025049597,871.1954114
1574181577.118965,6.901585578918457,0.000226504169,784.34509178
1574181577.1669526,6.949573278427124,0.00020888634,720.5685508
1574181577.214943,6.997563600540161,0.000199715607,687.37049734
1574181577.262933,7.045553684234619,0.0001961831,674.582822
1574181577.31092,7.093540668487549,0.000196930952,677.2900462399999
1574181577.3589082,7.141528844833374,0.000197692774,680.04784188
1574181577.406896,7.18951678276062,0.000198104419,681.53799678
1574181577.454757,7.237377643585205,0.000198526308,683.06523496
1574181577.5027695,7.285390138626099,0.000198762864,683.92156768
1574181577.550774,7.333394765853882,0.000199052505,684.9700681
1574181577.5987172,7.381337881088257,0.000199245289,685.66794618
1574181577.6467564,7.42937707901001,0.000199417584,686.29165408
1574181577.6946924,7.477313041687012,0.000199561939,686.81421918
1574181577.742813,7.525433778762817,0.000199726783,687.41095446
1574181577.7907972,7.573417901992798,0.000199854374,687.87283388
1574181577.8387818,7.6214025020599365,0.000199976377,688.31448474
1574181577.8867693,7.669389963150024,0.000199561007,686.81084534
1574181577.9346383,7.717258930206299,0.000200556591,690.41485942
1574181577.9826484,7.765269041061401,0.000200169161,689.0123628199999
1574181578.0306053,7.813225984573364,0.000200190581,689.08990322
1574181578.0786011,7.861221790313721,0.000200896524,691.64541688
1574181578.1265886,7.909209251403809,0.000200008973,688.4324822599999
1574181578.1745863,7.957206964492798,0.000200976618,691.93535716
1574181578.2225747,8.005195379257202,0.000200554729,690.4081189799999
1574181578.2705438,8.0531644821167,0.000200468116,690.09457992
1574181578.3185499,8.101170539855957,0.000201218762,692.8119184399999
1574181578.3665373,8.149158000946045,0.000200315379,689.54167198
1574181578.4145076,8.197128295898438,0.000185410492,635.58598104
1574181578.462496,8.245116710662842,0.000138369389,465.29718818
1574181578.5144856,8.297106266021729,9.4576739e-05,306.76779517999995
1574181578.558602,8.341222763061523,6.2673353e-05,191.27753786
1574181578.606467,8.389087677001953,4.5262277e-05,128.24944274
1574181578.658446,8.44106674194336,3.0781142e-05,75.82773404
1574181578.706447,8.489067554473877,2.2647902e-05,46.38540523999999
1574181578.7505548,8.533175468444824,2.1623448e-05,42.67688176000001
1574181578.8024426,8.585063219070435,2.339296e-05,49.082515199999996
1574181578.8504024,8.633023023605347,2.4494715e-05,53.070868299999994
1574181578.8943944,8.67701506614685,2.5337562e-05,56.121974439999995
1574181578.9463778,8.72899842262268,2.5929883e-05,58.266176460000004
1574181578.9943697,8.776990413665771,2.6407652e-05,59.99570024
1574181579.0423484,8.824969053268433,2.6849099e-05,61.59373838
1574181579.0891776,8.871798276901245,2.7153641e-05,62.69618042
1574181579.1382487,8.92086935043335,2.7447939e-05,63.76153917999999
1574181579.1863103,8.968930959701538,2.7709641e-05,64.70890041999999
1574181579.2342982,9.016918897628784,2.7890317e-05,65.36294754
1574181579.2822847,9.064905405044556,2.8591603e-05,67.90160286
1574181579.330289,9.11290955543518,2.7767383e-05,64.91792645999999
1574181579.378256,9.160876750946045,2.8791837e-05,68.62644993999999
1574181579.4262588,9.208879470825195,2.8504059e-05,67.58469357999999
1574181579.4742382,9.256858825683594,2.8482638e-05,67.50714956000002
1574181579.5182176,9.300838232040405,2.9251911e-05,70.29191782000001
1574181579.5683193,9.350939989089966,2.840627e-05,67.2306974
1574181579.6176891,9.400309801101685,2.9354356e-05,70.66276872
1574181579.6656766,9.448297262191772,2.904702e-05,69.55021239999999
1574181579.7136645,9.496285200119019,2.8980896e-05,69.31084351999999
1574181579.7615495,9.544170141220093,2.9755756e-05,72.11583672
1574181579.8096356,9.592256307601929,6.1769038e-05,188.00391756
1574181579.8576262,9.640246868133545,9.9593773e-05,324.92945825999993
1574181579.9056158,9.688236474990845,0.00013777893,463.15972659999994
1574181579.9536037,9.73622441291809,0.000181692652,622.12740024
1574181580.001467,9.784087657928467,0.000228977762,793.29949844
1574181580.049579,9.832199573516846,0.000274603255,958.4637831
1574181580.0975664,9.880187034606934,0.000322282314,1131.06197668
1574181580.142698,9.925318717956543,0.00036814902,1297.0994524
1574181580.1908252,9.973445892333984,0.000413240865,1460.3319313000002
1574181580.2388148,10.021435499191284,0.00045847334,1624.0734908
1574181580.2868025,10.069423198699951,0.000500975177,1777.93014074
1574181580.3346667,10.117287397384644,0.000544209965,1934.4400733
1574181580.3827724,10.165393114089966,0.00058552064,2083.9847168
1574181580.4307652,10.213385820388794,0.000625560991,2228.93078742
1574181580.47865,10.261270761489868,0.000665106811,2372.08665582
1574181580.5266678,10.309288501739502,0.000701406039,2503.48986118
1574181580.5747285,10.357349157333374,0.00073800981,2635.9955122
1574181580.6227167,10.4053373336792,0.000771936961,2758.81179882
1574181580.6718643,10.454484939575195,0.000803613104,2873.47943648
1574181580.7197766,10.502397298812866,0.000834394246,2984.9071705200004
1574181580.768918,10.551538705825806,0.000862087123,3085.1553852600005
1574181580.8167849,10.599405527114868,0.00088972412,3185.2013144000002
1574181580.8648124,10.647433042526245,0.000913562253,3271.49535586
1574181580.9110365,10.693657159805298,0.000933252275,3342.7732355
1574181580.9590704,10.74169111251831,0.00094855763,3398.1786206
1574181581.0080209,10.79064154624939,0.000954477116,3419.60715992
1574181581.0560074,10.838628053665161,0.0009550713,3421.758106
1574181581.1039968,10.886617422103882,0.000953115523,3414.67819326
1574181581.1519818,10.934602499008179,0.000951346941,3408.27592642
1574181581.1999705,10.982591152191162,0.000951293856,3408.0837587200003
1574181581.247958,11.03057861328125,0.000949597917,3401.94445954
1574181581.2958138,11.078434467315674,0.000949664041,3402.18382842
1574181581.3439333,11.126554012298584,0.000949123874,3400.2284238800003
1574181581.3940253,11.176645994186401,0.000948163681,3396.7525252200003
1574181581.4420297,11.224650382995605,0.000948772766,3398.9574129200005
1574181581.4900067,11.272627353668213,0.000947535038,3394.47683756
1574181581.5379956,11.320616245269775,0.000946821645,3391.8943549
1574181581.5832713,11.365891933441162,0.000927385874,3321.53686388
1574181581.6311743,11.413794994354248,0.000887873583,3178.5023704600003
1574181581.6792412,11.461861848831177,0.000836017542,2990.7835020400003
1574181581.7272358,11.509856462478638,0.000775003806,2769.9137777200003
1574181581.7750964,11.557717084884644,0.000712976791,2545.37598342
1574181581.8231645,11.605785131454468,0.000649060123,2313.99764526
1574181581.8711972,11.653817892074585,0.000585651956,2084.4600807200004
1574181581.9214616,11.704082250595093,0.000524998643,1864.89508766
1574181581.9693515,11.751972198486328,0.00046572648,1650.3298576000002
1574181582.017437,11.800057649612427,0.000411679037,1454.67811394
1574181582.0654294,11.848050117492676,0.000362268649,1275.8125093800002
1574181582.1142704,11.896891117095947,0.000319028273,1119.2823482600002
1574181582.159601,11.942221641540527,0.000282678753,987.6970858599999
1574181582.2088776,11.991498231887817,0.000253857113,883.3627490599999
1574181582.2568657,12.039486408233643,0.000232245773,805.12969826
1574181582.304817,12.087437629699707,0.000217469409,751.6392605799999
1574181582.3528428,12.13546347618103,0.000210122205,725.0423820999999
1574181582.400828,12.183448553085327,0.000208184123,718.02652526
1574181582.448686,12.231306552886963,0.000208722427,719.97518574
1574181582.4966798,12.279300451278687,0.000209208578,721.7350523599999
1574181582.5447176,12.327338218688965,0.000209552236,722.9790943200001
1574181582.5910702,12.373690843582153,0.000209755264,723.71405568
1574181582.6390574,12.421678066253662,0.000210007653,724.62770386
1574181582.6870458,12.469666481018066,0.000210228376,725.42672112
1574181582.7349133,12.517534017562866,0.000210356899,725.89197438
1574181582.7830164,12.565637111663818,0.000210536644,726.54265128
1574181582.8333032,12.615923881530762,0.000210573897,726.67750714
1574181582.8811653,12.663785934448242,0.000210764818,727.3686411599999
1574181582.9292777,12.71189832687378,0.000210848637,727.6720659399999
1574181582.9771779,12.759798526763916,0.000210954808,728.05640496
1574181583.0251667,12.807787418365479,0.000211244449,729.10490538
1574181583.073241,12.85586166381836,0.000210616738,726.83259156
1574181583.1211414,12.903762102127075,0.000211648643,730.56808766
1574181583.1704516,12.953072309494019,0.000210934319,727.98223478
1574181583.217668,13.000288724899292,0.000211329199,729.41170038
1574181583.265972,13.048592567443848,0.000211602077,730.39951874
1574181583.314383,13.097003698348999,0.000210961327,728.08000374
1574181583.3622797,13.14490032196045,0.000211950392,731.66041904
1574181583.4095893,13.192209959030151,0.000211197883,728.93633646
1574181583.457566,13.24018669128418,0.000211525708,730.12306296
1574181583.5056636,13.288284301757812,0.000211893581,731.45476322
1574181583.5540428,13.336663484573364,0.000211163424,728.81159488
1574181583.60228,13.384900569915771,0.00021218881,732.5234922
1574181583.6497602,13.43238091468811,0.000211410224,729.70501088
1574181583.698287,13.480907678604126,0.000211691484,730.72317208
1574181583.7463744,13.528995037078857,0.000212115236,732.25715432
1574181583.7942824,13.576903104782104,0.00021135807,729.5162134
1574181583.841958,13.624578714370728,0.000212342478,733.07977036
1574181583.8896663,13.672286987304688,0.000211610459,730.42986158
1574181583.9379332,13.720553874969482,0.000211861916,731.34013592
1574181583.986195,13.768815755844116,0.000212294981,732.90783122
1574181584.0339003,13.816520929336548,0.0002114987,730.025294
1574181584.0822835,13.864904165267944,0.000212447718,733.46073916
1574181584.1303816,13.913002252578735,0.000211768784,731.00299808
1574181584.1775846,13.960205316543579,0.000211968087,731.7244749399999
1574181584.2256925,14.008313179016113,0.000212432817,733.40679754
1574181584.2735555,14.05617618560791,0.000211618841,730.46020442
1574181584.3215487,14.104169368743896,0.00021255482,733.8484483999999
1574181584.3696663,14.152287006378174,0.000211904757,731.49522034
1574181584.4175265,14.200147151947021,0.000212082639,732.1391531799999
1574181584.465535,14.24815559387207,0.000212557614,733.85856268
1574181584.513625,14.296245574951172,0.00021172408,730.8411696
1574181584.5616128,14.344233512878418,0.000212664716,734.24627192
