Time, Time Since Begin, V/V Raw Data, Force 
1574187637.9928682,0.277813196182251,-0.000106195919,-420.02922678
1574187638.03332,0.3182649612426758,-0.000106325373,-420.49785026
1574187638.0706801,0.3556251525878906,-0.000106508844,-421.16201528000005
1574187638.119383,0.4043281078338623,-0.00010656286,-421.35755320000004
1574187638.160329,0.44527411460876465,-0.000106507912,-421.15864144000005
1574187638.200102,0.4850471019744873,-0.000106409192,-420.80127504
1574187638.241965,0.5269100666046143,-0.0001062667,-420.285454
1574187638.2879097,0.57285475730896,-0.000106118619,-419.74940078000003
1574187638.3278286,0.6127736568450928,-0.000106097199,-419.67186038000006
1574187638.367691,0.6526360511779785,-0.00010609068,-419.6482616
1574187638.4076915,0.6926364898681641,-0.000106255524,-420.24499688000003
1574187638.4584055,0.7433505058288574,-0.000106357969,-420.61584778
1574187638.4976873,0.7826323509216309,-0.000106523745,-421.21595690000004
1574187638.5347588,0.8197038173675537,-0.000106540509,-421.27664258000004
1574187638.5784645,0.8634095191955566,-0.000106511638,-421.17212956000003
1574187638.62368,0.9086251258850098,-0.000106374733,-420.67653346
1574187638.6636877,0.9486327171325684,-0.000106235035,-420.1708267
1574187638.7036765,0.9886214733123779,-0.000106071122,-419.57746164
1574187638.7437835,1.0287284851074219,-0.000106059946,-419.53700452
1574187638.792674,1.0776190757751465,-0.000106127933,-419.78311746
1574187638.833345,1.1182899475097656,-0.000106296502,-420.39333724000005
1574187638.870926,1.1558709144592285,-0.000102947466,-408.26982692
1574187638.9108937,1.1958386898040771,-3.6798418e-05,-168.81027315999998
1574187638.9617484,1.2466933727264404,1.745671e-05,27.5932902
1574187639.0020628,1.2870078086853027,8.91909e-05,287.271058
1574187639.0399566,1.3249015808105469,0.00018883124,647.9690888
1574187639.0803607,1.3653056621551514,0.000294419006,1030.1968017200002
1574187639.1298323,1.4147772789001465,0.00039434433,1391.9264746000001
1574187639.1696994,1.4546444416046143,0.000485787168,1722.94954816
1574187639.2083995,1.4933445453643799,0.000567353331,2018.21905822
1574187639.2580504,1.5429954528808594,0.000637102872,2270.7123966400004
1574187639.295102,1.5800468921661377,0.000698920339,2494.49162718
1574187639.3352244,1.6201694011688232,0.000751423649,2684.55360938
1574187639.3767216,1.6616666316986084,0.000795217231,2843.08637622
1574187639.4257357,1.7106807231903076,0.000832332298,2977.44291876
1574187639.4657254,1.7506704330444336,0.000863069668,3088.71219816
1574187639.504521,1.7894659042358398,0.000889154151,3183.1380266200003
1574187639.5537727,1.8387176990509033,0.000912041403,3265.98987886
1574187639.599874,1.8848190307617188,0.000932299532,3339.32430584
1574187639.647865,1.9328100681304932,0.000948185101,3396.83006562
1574187639.6957183,1.9806632995605469,0.000960567966,3441.65603692
1574187639.7438402,2.028785228729248,0.000969666056,3474.59112272
1574187639.7920225,2.076967477798462,0.000976904295,3500.7935479
1574187639.8418558,2.126800775527954,0.000980370678,3513.34185436
1574187639.8897116,2.174656629562378,0.000983722508,3525.4754789599997
1574187639.934786,2.219731092453003,0.000982041471,3519.39012502
1574187639.9839227,2.2688677310943604,0.000916149467,3280.86107054
1574187640.031911,2.3168559074401855,0.000740576535,2645.2870567
1574187640.0797637,2.364708662033081,0.000506579876,1798.21915112
1574187640.1397493,2.424694299697876,0.000249816105,868.7343000999999
1574187640.175744,2.460689067840576,4.5066699e-05,127.54145037999999
1574187640.2257762,2.510721206665039,-6.4671971e-05,-269.71253502
1574187640.2738614,2.5588064193725586,-0.000178772025,-682.7547305
1574187640.3195372,2.6044821739196777,-0.000247662887,-932.1396509399999
1574187640.3663733,2.651318311691284,-0.000250698999,-943.13037638
1574187640.418327,2.7032721042633057,-0.000231893733,-875.05531346
1574187640.4644096,2.749354600906372,-0.000205429271,-779.25396102
1574187640.5107503,2.7956953048706055,-0.000177258626,-677.27622612
1574187640.5601342,2.845079183578491,-0.000149804167,-577.8910845400001
1574187640.6075556,2.892500638961792,-0.000123714097,-483.44503114
1574187640.65539,2.9403350353240967,-0.000101774,-404.02188000000007
1574187640.703378,2.9883229732513428,-8.4158033e-05,-340.25207946000006
1574187640.752191,3.0371360778808594,-7.3382631e-05,-301.24512422
1574187640.8016331,3.086578130722046,-6.8545341e-05,-283.73413442
1574187640.8466613,3.131606340408325,-6.9092959e-05,-285.71651158000003
1574187640.896077,3.1810219287872314,-6.9221482e-05,-286.18176484
1574187640.94502,3.2299649715423584,-6.89812e-05,-285.311944
1574187640.9930391,3.277984142303467,-6.9420785e-05,-286.9032417
1574187641.0412276,3.3261725902557373,-6.9018453e-05,-285.44679986
1574187641.0864718,3.3714168071746826,-6.000977e-05,-252.8353674
1574187641.1349196,3.4198646545410156,-8.475e-08,-35.906795
1574187641.1846828,3.469627857208252,7.2334893e-05,226.25231266
1574187641.2344425,3.5193874835968018,0.000180277973,617.00626226
1574187641.2797518,3.564696788787842,0.000301733613,1056.67567906
1574187641.3237379,3.608682870864868,0.000415227376,1467.52310112
1574187641.3778925,3.662837505340576,0.000516897999,1835.5707563800001
1574187641.4258835,3.7108285427093506,0.000606785528,2160.9636113600004
1574187641.4721553,3.7571003437042236,0.000681887381,2432.83231922
1574187641.5221586,3.8071036338806152,0.000746296719,2665.99412278
1574187641.56973,3.854675054550171,0.000798884779,2856.36289998
1574187641.6183827,3.903327703475952,0.000845654868,3025.67062216
1574187641.6661732,3.951118230819702,0.000887183473,3176.00417226
1574187641.712085,3.997030019760132,0.000919663347,3293.58131614
1574187641.7594588,4.044403791427612,0.000949215144,3400.55882128
1574187641.8090947,4.094039678573608,0.000969565473,3474.22701226
1574187641.8579724,4.1429173946380615,0.000984502956,3528.3007007200003
1574187641.9058614,4.1908063888549805,0.000997478142,3575.2708740400003
1574187641.9506154,4.235560417175293,0.001006556675,3608.1351634999996
1574187642.0005233,4.285468339920044,0.001009616069,3619.2101697800003
1574187642.0494475,4.334392547607422,0.001008208841,3614.1160044199996
1574187642.0975454,4.382490396499634,0.001007422805,3611.2705541
1574187642.1458628,4.430807828903198,0.001006980427,3609.66914574
1574187642.1997888,4.484733819961548,0.001006020233,3606.19324346
1574187642.2488165,4.533761501312256,0.000993555412,3561.07059144
1574187642.2982748,4.583219766616821,0.000865339302,3096.92827324
1574187642.3463497,4.6312947273254395,0.000652323477,2325.81098674
1574187642.3940568,4.679001808166504,0.00039459765,1392.843493
1574187642.442219,4.727164030075073,0.000142592005,480.5830581
1574187642.487859,4.772804021835327,-5.884096e-06,-56.90042752
1574187642.5358787,4.820823669433594,-0.000122186728,-477.91595536000005
1574187642.5838337,4.868778705596924,-0.000226352364,-854.99555768
1574187642.6318247,4.916769742965698,-0.000266464427,-1000.2012257399999
1574187642.680048,4.964993000030518,-0.000252614729,-950.0653189799999
1574187642.728036,5.012980937957764,-0.000225693919,-852.61198678
1574187642.7776086,5.062553644180298,-0.000192568637,-732.69846594
1574187642.8256104,5.110555410385132,-0.000161022879,-618.50282198
1574187642.8706965,5.155641555786133,-0.000131027773,-509.92053826000006
1574187642.9219081,5.206853151321411,-0.000105022453,-415.78127986000004
1574187642.9700274,5.254972457885742,-8.2997605e-05,-336.05133010000003
1574187643.0180166,5.302961587905884,-6.843172e-05,-283.32282640000005
1574187643.0659027,5.3508477210998535,-6.1424449e-05,-257.95650538
1574187643.1140876,5.3990325927734375,-5.8739446e-05,-248.23679452
1574187643.1599727,5.444917678833008,-5.9100799e-05,-249.54489238
1574187643.2076166,5.49256157875061,-5.8693811e-05,-248.07159582
1574187643.257431,5.5423760414123535,-5.903095e-05,-249.292039
1574187643.3051186,5.590063571929932,-3.9078295e-05,-177.0634279
1574187643.3508377,5.635782718658447,1.7854385e-05,29.03287369999999
1574187643.4002237,5.685168743133545,9.9909492e-05,326.07236104
1574187643.4478154,5.732760429382324,0.000215816312,745.65504944
1574187643.4963717,5.781316757202148,0.000335047953,1177.27358986
1574187643.5458462,5.830791234970093,0.000445461832,1576.97183184
1574187643.593942,5.878886938095093,0.000543728471,1932.69706502
1574187643.642294,5.927238941192627,0.000629216433,2242.1634874600004
1574187643.6862972,5.971242189407349,0.000702372752,2506.98936224
1574187643.7358665,6.020811557769775,0.000762035139,2722.96720318
1574187643.7839732,6.068918228149414,0.0008141445,2911.60309
1574187643.8321285,6.1170735359191895,0.000859328546,3075.1693365200003
1574187643.88237,6.1673150062561035,0.000897946768,3214.9673001600004
1574187643.9277713,6.212716341018677,0.000930100679,3331.36445798
1574187643.9756477,6.260592699050903,0.00095524732,3422.3952984000002
1574187644.0236323,6.308577299118042,0.000975394621,3495.3285280200002
1574187644.0716186,6.356563568115234,0.000989980996,3548.13120552
1574187644.1196918,6.404636859893799,0.001003107056,3595.6475427200003
1574187644.1676,6.452544927597046,0.001007956453,3613.2023598600003
1574187644.215582,6.5005269050598145,0.001006627455,3608.3913871000004
1574187644.2650466,6.549991607666016,0.001006312668,3607.25185816
1574187644.3107297,6.595674753189087,0.001005873084,3605.6605640800003
1574187644.3604877,6.645432710647583,0.001005296595,3603.5736739
1574187644.4057934,6.6907384395599365,0.001005388796,3603.90744152
1574187644.4588723,6.743817329406738,0.001004689373,3601.3755302600002
1574187644.5039053,6.7888503074646,0.001004717313,3601.4766730600004
1574187644.5518885,6.836833477020264,0.000993848778,3562.1325763600003
1574187644.5999265,6.884871482849121,0.000869135372,3110.67004664
1574187644.650351,6.935296058654785,0.000657928176,2346.09999712
1574187644.6980784,6.983023405075073,0.000400074758,1412.67062396
1574187644.7457302,7.030675172805786,0.000147746876,499.24369112
1574187644.7933626,7.078307628631592,-4.04194e-06,-50.2318228
1574187644.8419986,7.126943588256836,-0.000119286589,-467.41745218
1574187644.8866184,7.171563386917114,-0.000225215219,-850.8790927800001
1574187644.9351668,7.220111846923828,-0.00026862137,-1008.0093594000001
1574187644.9831643,7.268109321594238,-0.00025203079,-947.9514598000001
1574187645.032321,7.31726598739624,-0.000223167241,-843.4654124200001
1574187645.0801797,7.365124702453613,-0.000187808648,-715.4673057599999
1574187645.1277492,7.412694215774536,-0.000153644942,-591.7946900400001
1574187645.1757498,7.460694789886475,-0.000123769976,-483.64731312000004
1574187645.2249155,7.509860515594482,-9.7291544e-05,-387.79538928
1574187645.2738857,7.558830738067627,-7.6510012e-05,-312.56624344000005
1574187645.3201394,7.605084419250488,-6.3471496e-05,-265.36681552
1574187645.369801,7.654746055603027,-5.6382269e-05,-239.70381378
1574187645.415183,7.700128078460693,-5.1067211e-05,-220.46330382
1574187645.4633834,7.748328447341919,4.235655e-06,-20.2669289
1574187645.5113869,7.796331882476807,7.7256002e-05,244.06672724
1574187645.5602384,7.845183372497559,0.000187674537,643.78182394
1574187645.6084619,7.893406867980957,0.000308387913,1080.7642450600001
1574187645.6556768,7.940621852874756,0.000421782956,1491.2543007200002
1574187645.7037642,7.988709211349487,0.000523943454,1861.0753034800002
1574187645.7517467,8.036691665649414,0.00061265938,2182.2269556
1574187645.8008733,8.08581829071045,0.000687672757,2453.77538034
1574187645.8465693,8.131514310836792,0.00075129699,2684.0951038
1574187645.8954985,8.180443525314331,0.000802426599,2869.18428838
1574187645.9431505,8.228095531463623,0.000849547796,3039.76302152
1574187645.9905715,8.275516510009766,0.000889257528,3183.51225136
1574187646.0394258,8.324370861053467,0.000921733677,3301.07591074
1574187646.090022,8.374967098236084,0.000949662179,3402.17708798
1574187646.1379323,8.422877311706543,0.000969915651,3475.49465662
1574187646.1825676,8.467512607574463,0.000985775143,3532.90601766
1574187646.2318115,8.516756534576416,0.00099892728,3580.5167536
1574187646.2794359,8.564380884170532,0.001006169245,3606.7326669
1574187646.3293643,8.614309310913086,0.001005565748,3604.54800776
1574187646.3772547,8.66219973564148,0.001004604623,3601.06873526
1574187646.4231448,8.708089828491211,0.0010045534,3600.883308
1574187646.4716501,8.756595134735107,0.00100402534,3598.9717308
1574187646.5201037,8.805048704147339,0.00100371521,3597.8490602000006
1574187646.5696938,8.854638814926147,0.001004221849,3599.6830933800006
1574187646.617578,8.902523040771484,0.001002704725,3594.1911045
1574187646.664691,8.949635982513428,0.000969031826,3472.2952101200003
1574187646.7142804,8.999225378036499,0.000813937746,2910.85464052
1574187646.7622814,9.047226428985596,0.000585440546,2083.6947765200002
1574187646.8075256,9.092470645904541,0.000322316773,1131.1867182600001
1574187646.8555403,9.140485286712646,8.6871907e-05,278.87630334
1574187646.9045877,9.18953275680542,-3.8329512e-05,-174.35283343999998
1574187646.9542823,9.239227294921875,-0.000156149268,-600.86035016
1574187647.0018861,9.286831140518188,-0.000246903859,-929.39196958
1574187647.04987,9.33481502532959,-0.000265819952,-997.8682262399999
1574187647.0977938,9.382738828659058,-0.000246378593,-927.49050666
1574187647.1443267,9.429271697998047,-0.000215381384,-815.28061008
1574187647.1918087,9.47675371170044,-0.000178919174,-683.28740988
1574187647.2396958,9.524640798568726,-0.000144905411,-560.15758782
1574187647.2876437,9.572588682174683,-0.000114562921,-450.31777402
1574187647.3359177,9.62086272239685,-3.7174672e-05,-170.17231264
1574187647.3839767,9.668921709060669,2.6426278e-05,60.063126360000005
1574187647.4320183,9.716963291168213,0.000114469789,378.78063618
1574187647.480086,9.765031099319458,0.000232338905,805.4668361
1574187647.5298991,9.814844131469727,0.0003517773,1237.833826
1574187647.5746977,9.859642744064331,0.000460107811,1629.99027582
1574187647.6223903,9.90733528137207,0.00055749435,1982.529547
1574187647.6716,9.956545114517212,0.000640275888,2282.19871456
1574187647.71963,10.00457501411438,0.000709977932,2534.5201138400002
1574187647.7700005,10.054945468902588,0.000768208876,2745.31613112
1574187647.8176053,10.102550268173218,0.00081703905,2922.081361
1574187647.8631592,10.148104190826416,0.000861413777,3082.71787274
1574187647.9109948,10.195939779281616,0.000898079947,3215.44940814
1574187647.959894,10.244838953018188,0.000928456895,3325.4139599
1574187648.0072067,10.292151689529419,0.0009533884,3415.666008
1574187648.0557716,10.34071660041809,0.000971061178,3479.64146436
1574187648.1057386,10.390683650970459,0.000987891108,3540.5658109600004
1574187648.1537337,10.438678741455078,0.00100067351,3586.8381062000003
1574187648.1998947,10.484839677810669,0.001004373655,3600.2326311
1574187648.249519,10.534464120864868,0.00100450404,3600.7046248000006
1574187648.296053,10.580997943878174,0.001002661884,3594.0360200799996
1574187648.3441262,10.629071235656738,0.001003576443,3597.34672366
1574187648.393323,10.67826795578003,0.001002662815,3594.0393903000004
1574187648.4412878,10.726232767105103,0.001002221368,3592.44135216
1574187648.4869394,10.771884441375732,0.001002978534,3595.1822930800004
1574187648.5367064,10.821651458740234,0.001001497731,3589.82178622
1574187648.5858574,10.870802402496338,0.001002534293,3593.57414066
1574187648.634299,10.919244050979614,0.001001742668,3590.70845816
1574187648.6811922,10.966137170791626,0.00098301284,3522.9064808000003
1574187648.729877,11.014822006225586,0.000846710056,3029.49040272
1574187648.7779021,11.062847137451172,0.000629597344,2243.54238528
1574187648.825871,11.11081600189209,0.000371215865,1308.2014313000002
1574187648.8739552,11.158900260925293,0.000124759972,416.03109864
1574187648.9218712,11.20681619644165,-1.7391518e-05,-98.55729516
1574187648.9697294,11.254674434661865,-0.000131577253,-511.90965586000004
1574187649.0177298,11.302674770355225,-0.000234092586,-883.0151613200001
1574187649.0640235,11.348968505859375,-0.000267932191,-1005.5145314200001
1574187649.1120012,11.39694619178772,-0.000255771913,-961.49432506
1574187649.1610498,11.445994853973389,-0.000230473466,-869.9139469200001
1574187649.2066536,11.49159860610962,-0.000195869245,-744.6466669
1574187649.2576058,11.542550802230835,-0.000159101561,-611.54765082
1574187649.3054674,11.590412378311157,-0.000125433318,-489.66861116
1574187649.3539197,11.638864755630493,-9.9785626e-05,-396.82396612
1574187649.4019318,11.686876773834229,-7.9520978e-05,-323.46594036000005
1574187649.4501517,11.73509669303894,-6.5647997e-05,-273.24574914000004
1574187649.495838,11.78078293800354,-5.9224665e-05,-249.9932873
1574187649.5447977,11.829742670059204,-5.704537e-05,-242.10423939999998
1574187649.5920484,11.876993417739868,-5.7409517e-05,-243.42245154
1574187649.642011,11.926955938339233,-5.732011e-05,-243.0987982
1574187649.689995,11.974940061569214,-5.7223253e-05,-242.74817586
1574187649.7379844,12.022929430007935,-5.7523139e-05,-243.83376317999998
1574187649.7859802,12.070925235748291,-5.7152472e-05,-242.49194864
1574187649.834046,12.118990898132324,-5.7466328e-05,-243.62810736
1574187649.8811967,12.166141748428345,-5.7358295e-05,-243.23702790000002
1574187649.9280279,12.21297287940979,-5.7266094e-05,-242.90326027999998
1574187649.9742365,12.259181499481201,-5.7523139e-05,-243.83376317999998
1574187650.0246537,12.309598684310913,-5.7156198e-05,-242.50543676
1574187650.071303,12.356247901916504,-5.7429075e-05,-243.49325149999999
1574187650.1243765,12.409321546554565,-5.7301484e-05,-243.03137208
1574187650.170195,12.455140113830566,-5.7231635e-05,-242.77851869999998
1574187650.216672,12.501616954803467,-5.7470985e-05,-243.6449657
1574187650.2643366,12.549281597137451,-5.7085417e-05,-242.24920954
1574187650.3142428,12.599187850952148,-5.745329e-05,-243.5809098
1574187650.360182,12.645127058029175,-5.7292171e-05,-242.99765902
1574187650.4097843,12.694729328155518,-5.7260506e-05,-242.88303172
Time, Time Since Begin, V/V Raw Data, Force 
