Time, Time Since Begin, V/V Raw Data, Force 
1574185659.7222705,0.2440357208251953,-9.7160228e-05,-387.32002536
1574185659.7621343,0.28389954566955566,-9.7244978e-05,-387.62682036
1574185659.8021536,0.32391881942749023,-9.7648241e-05,-389.08663242
1574185659.8502436,0.3720088005065918,-9.8040327e-05,-390.50598374000003
1574185659.8902314,0.41199660301208496,-9.8475255e-05,-392.0804231
1574185659.9301198,0.4518849849700928,-9.8658726e-05,-392.74458812
1574185659.9701295,0.4918947219848633,-9.8535791e-05,-392.29956342
1574185660.0101194,0.5318846702575684,-9.8131597e-05,-390.83638114
1574185660.0580885,0.5798537731170654,-7.6172873e-05,-311.34580026000003
1574185660.0981772,0.6199424266815186,-3.807247e-06,-49.38223414
1574185660.1381748,0.6599400043487549,8.5583888e-05,274.21367455999996
1574185660.1780355,0.6998007297515869,0.000206646509,712.4603625799999
1574185660.2260168,0.7477819919586182,0.000331503339,1164.44208718
1574185660.2661335,0.7878987789154053,0.000449499115,1591.5867963
1574185660.303201,0.8249661922454834,0.000557919033,1984.06689946
1574185660.343187,0.8649523258209229,0.000656010583,2339.15831046
1574185660.3911943,0.9129595756530762,0.000742089935,2650.7655647
1574185660.4313014,0.9530665874481201,0.000812269747,2904.81648414
1574185660.4712899,0.9930551052093506,0.00085012801,3041.8633962
1574185660.511151,1.0329163074493408,0.000860132277,3078.07884274
1574185660.5591393,1.080904483795166,0.000857142732,3067.25668984
1574185660.5991676,1.1209328174591064,0.000855604187,3061.68715694
1574185660.6391292,1.1608943939208984,0.000854544342,3057.85051804
1574185660.6791027,1.2008678913116455,0.000853735022,3054.92077964
1574185660.7272227,1.2489879131317139,0.000853184611,3052.92829182
1574185660.7671697,1.2889349460601807,0.000852758996,3051.3875655200004
1574185660.807072,1.3288371562957764,0.000852438621,3050.22780802
1574185660.847193,1.3689582347869873,0.000852267258,3049.6074739600003
1574185660.8950784,1.4168436527252197,0.000852141529,3049.15233498
1574185660.9350727,1.4568378925323486,0.000852027908,3048.7410269600005
1574185660.9750679,1.496833086013794,0.000851876102,3048.19148924
1574185661.0150661,1.5368313789367676,0.000851749443,3047.73298366
1574185661.0630064,1.5847716331481934,0.000851505436,3046.8496783200003
1574185661.1030037,1.6247689723968506,0.000851255842,3045.94614804
1574185661.1429877,1.6647529602050781,0.000839951448,3005.0242417599998
1574185661.1909745,1.7127397060394287,0.000754481182,2695.62187884
1574185661.2310233,1.7527885437011719,0.000595547259,2120.2810775800003
1574185661.2789812,1.8007464408874512,0.000396007672,1397.94777264
1574185661.326943,1.848708152770996,0.000192054547,659.6374601399999
1574185661.3749735,1.8967387676239014,3.6266632e-05,95.68520784
1574185661.422917,1.9446821212768555,-5.4962933e-05,-234.56581745999998
1574185661.4710348,1.992799997329712,-0.000143649057,-555.60958634
1574185661.5190196,2.0407848358154297,-0.000188250095,-717.0653439
1574185661.5668797,2.0886449813842773,-0.00018597953,-708.8458986
1574185661.6148698,2.1366350650787354,-0.000183666125,-700.4713725
1574185661.662856,2.1846213340759277,-0.000182928517,-697.80123154
1574185661.710843,2.2326083183288574,-0.000182083808,-694.7433849600001
1574185661.7589157,2.2806808948516846,-0.000181491487,-692.59918294
1574185661.806824,2.3285892009735107,-0.000181315467,-691.9619905400001
1574185661.854814,2.3765792846679688,-0.00017483905,-668.517361
1574185661.9027936,2.4245588779449463,-5.9249811e-05,-250.08431582
1574185661.9507844,2.4725496768951416,2.9241666e-05,70.25483091999999
1574185661.9987736,2.520538806915283,0.000156499445,530.9279908999999
1574185662.046765,2.568530321121216,0.000300429761,1051.95573482
1574185662.094774,2.616539239883423,0.000438636169,1552.26293178
1574185662.1428595,2.6646246910095215,0.000563379377,2003.8333447400003
1574185662.1907196,2.712484836578369,0.000673867762,2403.8012984399998
1574185662.2387583,2.760523557662964,0.000767970458,2744.45305796
1574185662.2868278,2.8085930347442627,0.000840916298,3008.51699876
1574185662.3348167,2.856581926345825,0.00088399183,3164.4504246
1574185662.3866715,2.9084367752075195,0.000884584151,3166.5946266200003
1574185662.430719,2.952484130859375,0.000882338732,3158.46620984
1574185662.4808023,3.0025675296783447,0.000881053507,3153.81369534
1574185662.5286586,3.0504238605499268,0.000879947096,3149.80848752
1574185662.5767787,3.098543882369995,0.000879665837,3148.79032994
1574185662.6247678,3.1465330123901367,0.000878851861,3145.84373682
1574185662.6727521,3.1945173740386963,0.000878664665,3145.1660873
1574185662.7207417,3.242506980895996,0.000878293999,3143.82427638
1574185662.7699645,3.291729688644409,0.000877822749,3142.11835138
1574185662.8178334,3.3395986557006836,0.000877945684,3142.56337608
1574185662.8658369,3.3876020908355713,0.000877453946,3140.78328452
1574185662.9139335,3.4356987476348877,0.000877469778,3140.8405963600003
1574185662.9618325,3.483597755432129,0.000877286308,3140.17643496
1574185663.009901,3.5316662788391113,0.000864312053,3093.20963186
1574185663.0578473,3.5796124935150146,0.000756701455,2703.6592671
1574185663.10575,3.6275153160095215,0.000578354113,2058.04188906
1574185663.153734,3.675499200820923,0.00037006475,1304.0343950000001
1574185663.2017205,3.7234857082366943,0.000163163058,555.05026996
1574185663.2497625,3.7715277671813965,1.8893741e-05,32.795342420000004
1574185663.297697,3.819462299346924,-7.0412643e-05,-290.49376766
1574185663.3456929,3.8674581050872803,-0.000158145092,-608.08523304
1574185663.3937624,3.915527582168579,-0.000192664564,-733.04572168
1574185663.4417932,3.9635584354400635,-0.000180797651,-690.08749662
1574185663.4897828,4.011548042297363,-0.000164529309,-631.19609858
1574185663.5349238,4.056689023971558,-0.000146688893,-566.6137926600001
1574185663.5830407,4.104805946350098,-0.000129707158,-505.13991196
1574185663.6309474,4.15271258354187,-0.00011428725,-449.31984500000004
1574185663.6790147,4.200779914855957,-0.000101792626,-404.08930612
1574185663.7270033,4.24876856803894,-9.531714e-05,-380.64804680000003
1574185663.774993,4.29675817489624,-9.4956718e-05,-379.34331916
1574185663.8228486,4.344613790512085,-3.6711805e-05,-168.49673409999997
1574185663.8709629,4.392728090286255,4.7005713e-05,134.56068106
1574185663.918853,4.440618276596069,0.0001762826,602.543012
1574185663.9669425,4.488707780838013,0.000320566818,1124.85188116
1574185664.0149264,4.536691665649414,0.000457195565,1619.4479453000001
1574185664.0628712,4.584636449813843,0.000580213033,2064.77117946
1574185664.1109066,4.63267183303833,0.000688227825,2455.7847265
1574185664.1587615,4.6805267333984375,0.000778934918,2784.1444031600004
1574185664.206748,4.728513240814209,0.000846455805,3028.5700141
1574185664.2548697,4.776634931564331,0.000882266089,3158.20324218
1574185664.3027556,4.824520826339722,0.000879909843,3149.67363166
1574185664.3508444,4.872609615325928,0.000877940096,3142.54314752
1574185664.398714,4.9204792976379395,0.000876728445,3138.1569709
1574185664.4467773,4.968542575836182,0.00087578129,3134.7282698
1574185664.4948084,5.016573667526245,0.000875523314,3133.79439668
1574185664.5432801,5.065045356750488,0.000874808058,3131.20516996
1574185664.5914001,5.113165378570557,0.000874553807,3130.28478134
1574185664.6392837,5.161048889160156,0.000874291174,3129.33404988
1574185664.6873753,5.2091405391693115,0.000868749805,3109.2742941
1574185664.7352757,5.257040977478027,0.000775046647,2770.06886214
1574185664.7832232,5.304988384246826,0.000602132641,2144.12016042
1574185664.831346,5.353111267089844,0.000394443981,1392.28721122
1574185664.8793256,5.401090860366821,0.000183806755,629.7804530999999
1574185664.9271822,5.448947429656982,3.01525e-05,73.55205000000001
1574185664.9770432,5.49880838394165,-6.3240528e-05,-264.53071136
1574185665.0251226,5.5468878746032715,-0.000155037269,-596.83491378
1574185665.0731122,5.594877481460571,-0.000196085311,-745.42882582
1574185665.121098,5.6428632736206055,-0.000192727894,-733.27497628
1574185665.1689541,5.690719366073608,-0.000190922059,-726.7378535800001
1574185665.2169416,5.738706827163696,-0.000189563259,-721.8189975800001
1574185665.26495,5.786715269088745,-0.000189085491,-720.0894774200001
1574185665.3133252,5.835090398788452,-0.000188427046,-717.70590652
1574185665.3611846,5.8829498291015625,-0.000187958591,-716.0100994200001
1574185665.409304,5.9310691356658936,-0.000176265836,-673.68232632
1574185665.4572916,5.9790568351745605,-5.2958727e-05,-227.31059173999998
1574185665.505278,6.027043342590332,3.6248006e-05,95.61778172000001
1574185665.554301,6.076066255569458,0.000163957477,557.92606674
1574185665.6022818,6.124047040939331,0.000308471732,1081.06766984
1574185665.6502683,6.1720335483551025,0.000445603393,1577.48428266
1574185665.698256,6.2200212478637695,0.00057013426,2028.2860212
1574185665.7462451,6.268010377883911,0.000678813085,2421.7033677
1574185665.7942321,6.315997362136841,0.000770002604,2751.80942648
1574185665.8422346,6.363999843597412,0.000838666223,3000.37172726
1574185665.8902352,6.412000417709351,0.000875092112,3132.23344544
1574185665.9382272,6.459992408752441,0.000874021091,3128.35634942
1574185665.9862149,6.507980108261108,0.000871568918,3119.47948316
1574185666.0341747,6.5559399127960205,0.000870490447,3115.57541814
1574185666.0821905,6.6039557456970215,0.000869737007,3112.84796534
1574185666.1302748,6.652040004730225,0.00086903479,3110.3059398
1574185666.1781654,6.699930667877197,0.000868840143,3109.6013176600004
1574185666.2261784,6.747943639755249,0.000868279487,3107.57174294
1574185666.274202,6.79596734046936,0.000868119299,3106.99186238
1574185666.3222344,6.843999624252319,0.000867907889,3106.22655818
1574185666.3702161,6.891981363296509,0.000867594965,3105.0937733
1574185666.4180758,6.939841032028198,0.000867656432,3105.31628384
1574185666.4661958,6.987961053848267,0.000867214985,3103.7182457000004
1574185666.514178,7.035943269729614,0.000852296129,3049.7119869800003
1574185666.5621684,7.083933591842651,0.000741596334,2648.9787290800004
1574185666.6100354,7.131800651550293,0.00056517031,2010.3165222
1574185666.6580229,7.179788112640381,0.000361172482,1271.8443848400002
1574185666.7060015,7.227766752243042,0.000159976073,543.51338426
1574185666.7540407,7.275805950164795,2.0868145e-05,39.942684899999996
1574185666.8019767,7.323741912841797,-6.6362321e-05,-275.83160202000005
1574185666.8500988,7.371864080429077,-0.000150095671,-578.94632902
1574185666.8980863,7.419851541519165,-0.000183514319,-699.92183478
1574185666.9460638,7.467828989028931,-0.000172622502,-660.49345724
1574185666.9939346,7.515699863433838,-0.000156534836,-602.25610632
1574185667.041923,7.563688278198242,-0.000140400603,-543.85018286
1574185667.0899038,7.611669063568115,-0.000124332495,-485.6836319
1574185667.1378992,7.6596643924713135,-0.000109749846,-432.89444252000004
1574185667.1858778,7.707643032073975,-8.6853281e-05,-350.00887722000004
1574185667.2338653,7.7556304931640625,-2.940185e-06,-46.243469700000006
1574185667.2818537,7.803618907928467,0.000106186606,348.79551372
1574185667.329969,7.851734161376953,0.000249058008,865.98998896
1574185667.377835,7.899600267410278,0.000391262583,1380.77055046
1574185667.4258165,7.947581768035889,0.000521135516,1850.9105679200002
1574185667.4738562,7.9956214427948,0.000638113357,2274.3703523400004
1574185667.521794,8.043559312820435,0.000739085488,2639.88946656
1574185667.5699131,8.091678380966187,0.000821797177,2939.30578074
1574185667.617135,8.13890027999878,0.000878848135,3145.8302487
1574185667.6651196,8.186884880065918,0.000890797935,3189.0885247
1574185667.7131078,8.234873056411743,0.000887692906,3177.8483197200003
1574185667.7610948,8.282860040664673,0.00088613946,3172.2248452
1574185667.8089814,8.3307466506958,0.000885072164,3168.36123368
1574185667.8569896,8.37875485420227,0.000884668902,3166.90142524
1574185667.9050574,8.426822662353516,0.000883965753,3164.35602586
1574185667.9529653,8.474730491638184,0.000883777626,3163.67500612
1574185668.0009117,8.522676944732666,0.000883470289,3162.56244618
1574185668.0489213,8.57068657875061,0.000883039087,3161.00149494
1574185668.0970109,8.618776082992554,0.000883067958,3161.10600796
1574185668.145003,8.666768312454224,0.000882652588,3159.60236856
1574185668.1929884,8.7147536277771,0.000835173763,2987.7290220600003
1574185668.2408493,8.762614488601685,0.000689954497,2462.03527914
1574185668.2888398,8.8106050491333,0.000492997468,1749.05083416
1574185668.3369448,8.858710050582886,0.000279096887,974.73073094
1574185668.3849375,8.906702756881714,8.5586682e-05,274.22378884
1574185668.4329226,8.95468783378601,-3.0274503e-05,-145.19370086
1574185668.4808106,9.002575874328613,-0.000118044205,-462.92002210000004
1574185668.5289009,9.050666093826294,-0.000186855905,-712.0183761000001
1574185668.5768063,9.098571538925171,-0.000195021741,-741.57870242
1574185668.6247468,9.146512031555176,-0.000178969465,-683.4694633
1574185668.6727648,9.194530010223389,-0.000161388889,-619.82777818
1574185668.7208507,9.242615938186646,-0.000143398531,-554.70268222
1574185668.768754,9.29051923751831,-0.000126077794,-492.00161428
1574185668.8168275,9.338592767715454,-0.00011177361,-440.2204682
1574185668.8647127,9.386477947235107,-6.0196035e-05,-253.5096467
1574185668.9128017,9.434566974639893,2.2264197e-05,44.99639314
1574185668.9607916,9.482556819915771,0.00014770776,499.1020912
1574185669.0087824,9.530547618865967,0.000292294659,1022.50666558
1574185669.0567663,9.578531503677368,0.000431995839,1528.22493718
1574185669.104622,9.626387119293213,0.000558017753,1984.42426586
1574185669.1526418,9.674407005310059,0.000669721514,2388.79188068
1574185669.2006063,9.722371578216553,0.000763595104,2728.61427648
1574185669.2487292,9.77049446105957,0.000831557438,2974.63792556
1574185669.2967057,9.81847095489502,0.000861470588,3082.92352856
1574185669.3446934,9.866458654403687,0.000858660787,3072.7520489400003
1574185669.3926811,9.914446353912354,0.000856961124,3066.59926888
1574185669.4406734,9.962438583374023,0.000855839811,3062.5401158199998
1574185669.488656,10.01042127609253,0.000855062157,3059.72500834
1574185669.5365176,10.058282852172852,0.00085475482,3058.6124484
1574185669.5845017,10.106266975402832,0.000854161568,3056.46487616
1574185669.6325176,10.154282808303833,0.000853995793,3055.86477066
1574185669.6806085,10.202373743057251,0.000853736885,3054.9275236999997
1574185669.7285967,10.250361919403076,0.000853398815,3053.7037103000002
1574185669.776583,10.298348188400269,0.000853461213,3053.9295910600003
1574185669.8245685,10.346333742141724,0.000853044912,3052.42258144
1574185669.872473,10.394238233566284,0.000796712004,2848.4974544799998
1574185669.9205468,10.442312002182007,0.00065214932,2325.1805384
1574185669.968451,10.490216255187988,0.000464176759,1644.71986758
1574185670.0165215,10.538286685943604,0.000262327492,914.0255210400001
1574185670.0643818,10.58614706993103,8.2126819e-05,261.69908477999996
1574185670.1124978,10.634263038635254,-2.6179478e-05,-130.36971036
1574185670.160356,10.682121276855469,-0.000103573315,-410.5354003
1574185670.208343,10.730108261108398,-0.000167368911,-641.4754578200001
1574185670.2563574,10.778122663497925,-0.000173792243,-664.7279196600001
1574185670.304321,10.826086282730103,-0.000157288276,-604.9835591200001
1574185670.3524349,10.874200105667114,-0.000140822493,-545.37742466
1574185670.4004214,10.922186613082886,-0.000124401413,-485.93311506000003
1574185670.4484088,10.970174074172974,-0.000109826215,-433.17089830000003
1574185670.4976912,11.019456386566162,-9.8005868e-05,-390.38124216
1574185670.5455525,11.067317724227905,-9.1623515e-05,-367.2771243
1574185670.5935414,11.115306615829468,-9.033829e-05,-362.62460980000003
1574185670.6416528,11.163418054580688,-9.0080313e-05,-361.69073306
1574185670.689641,11.211406230926514,-9.0475194e-05,-363.12020228
1574185670.7376266,11.259391784667969,-9.0260059e-05,-362.34141358000005
1574185670.7856166,11.307381868362427,-9.0363435e-05,-362.7156347
1574185670.8336031,11.355368375778198,-9.0256333e-05,-362.32792546
1574185670.8814647,11.40322995185852,-9.0248883e-05,-362.30095646
1574185670.92958,11.451345205307007,-9.0333633e-05,-362.60775146000003
1574185670.9774687,11.499233961105347,-9.0111047e-05,-361.80199014
1574185671.0255482,11.547313451766968,-9.0263784e-05,-362.35489808
1574185671.0734987,11.595263957977295,-9.0125017e-05,-361.85256154
1574185671.1215434,11.643308639526367,-9.0113841e-05,-361.81210442
1574185671.1693878,11.691153049468994,-9.0218149e-05,-362.18969938000004
1574185671.217509,11.739274263381958,-8.9959241e-05,-361.25245242
1574185671.2655058,11.78727102279663,-9.0179965e-05,-362.0514733
1574185671.3134818,11.835247039794922,-8.99937e-05,-361.37719400000003
1574185671.3614695,11.883234739303589,-9.0001151e-05,-361.40416662
1574185671.409373,11.931138277053833,-9.0089627e-05,-361.72444974
1574185671.4574413,11.979206562042236,-8.0159865e-05,-325.77871130000005
1574185671.5053043,12.027069568634033,-4.108995e-06,-50.4745619
1574185671.5533197,12.075084924697876,0.000105016865,344.5610513
1574185671.6014104,12.123175621032715,0.000248332508,863.36367896
1574185671.6493921,12.171157360076904,0.000390938483,1379.59730846
1574185671.6973834,12.219148635864258,0.000521915965,1853.7357933
1574185671.7453732,12.267138481140137,0.000639550388,2279.57240456
1574185671.7932377,12.315002918243408,0.000741723925,2649.4406085
1574185671.8413515,12.36311674118042,0.000823023729,2943.74589898
1574185671.889332,12.411097288131714,0.000872526318,3122.94527116
1574185671.9373236,12.459088802337646,0.000880265608,3150.96150096
1574185671.9851887,12.506953954696655,0.000877256505,3140.0685481
1574185672.0332596,12.555024862289429,0.000875988044,3135.47671928
1574185672.082258,12.604023218154907,0.000875144266,3132.4222429200004
1574185672.1302836,12.652048826217651,0.000874459743,3129.9442696600004
1574185672.178143,12.699908256530762,0.000874171965,3128.9025133
1574185672.2261322,12.747897386550903,0.000873618759,3126.89990758
1574185672.2722096,12.793974876403809,0.000873425975,3126.2020294999998
1574185672.320336,12.842101335525513,0.000873188488,3125.34232656
1574185672.3683236,12.8900887966156,0.000872889534,3124.26011308
1574185672.41618,12.937945127487183,0.000872891396,3124.26685352
1574185672.4643085,12.986073732376099,0.000872562639,3123.0767531799997
1574185672.5122023,13.0339674949646,0.000872508623,3122.8812152600003
1574185672.5602615,13.082026720046997,0.000872356817,3122.3316775400003
1574185672.6081786,13.12994384765625,0.000860474072,3079.31614064
1574185672.6562474,13.178012609481812,0.000754465349,2695.56456338
1574185672.7054381,13.227203369140625,0.000578130595,2057.2327539
1574185672.7535126,13.275277853012085,0.0003717402,1310.099524
1574185672.8014982,13.32326340675354,0.000165978447,565.24197814
1574185672.849489,13.371254205703735,2.1332875e-05,41.62500749999999
1574185672.897343,13.419108152389526,-7.0297159e-05,-290.07571558
1574185672.9453416,13.467106819152832,-0.000159563497,-613.21985914
1574185672.9934072,13.515172481536865,-0.000194608234,-740.08180708
1574185673.0423565,13.564121723175049,-0.000182225369,-695.25583578
1574185673.0903032,13.61206841468811,-0.00016632583,-637.6995046000001
1574185673.1383321,13.660097360610962,-0.000150142238,-579.11490156
1574185673.1862216,13.707986831665039,-0.000135845505,-527.3607281000001
1574185673.2343068,13.756072044372559,-0.000122023746,-477.32596052
1574185673.2822146,13.803979873657227,-0.00011210423,-441.4173126
1574185673.3302462,13.852011442184448,-0.000104137696,-412.57845952
1574185673.3782759,13.900041103363037,-0.00010360498,-410.6500276
1574185673.4261365,13.947901725769043,-0.000103803352,-411.36813424
1574185673.4742472,13.996012449264526,-5.3136609e-05,-227.95452458
1574185673.5221212,14.043886423110962,2.786424e-05,65.26854879999999
1574185673.5702267,14.091991901397705,0.000155409798,526.9834687599999
1574185673.6164854,14.138250589370728,0.000300643034,1052.72778308
