Time, Time Since Begin, V/V Raw Data, Force 
1574191642.6870637,0.26006174087524414,7.618219e-06,-8.022047220000001
1574191642.7349696,0.3079676628112793,7.634051e-06,-7.964735380000004
1574191642.7750466,0.34804463386535645,7.585622e-06,-8.140048360000002
1574191642.814909,0.3879070281982422,7.554889e-06,-8.251301820000002
1574191642.8550253,0.4280233383178711,7.404946e-06,-8.794095480000003
1574191642.9029684,0.4759664535522461,7.317401e-06,-9.111008380000001
1574191642.943007,0.5160050392150879,7.329509e-06,-9.06717742
1574191642.9829924,0.55599045753479,7.369556e-06,-8.922207280000002
1574191643.0228493,0.5958473682403564,3.2058917e-05,80.45327953999998
1574191643.0708385,0.643836498260498,5.9600919e-05,180.15532678
1574191643.1108372,0.6838352680206299,8.7285414e-05,280.37319868
1574191643.1508384,0.7238364219665527,0.000116058625,384.5322225
1574191643.1908054,0.7638034820556641,0.000145911239,492.59868517999996
1574191643.2388103,0.8118083477020264,0.000178058632,608.97224784
1574191643.2788005,0.8517985343933105,0.000211005099,728.2384583799999
1574191643.3188922,0.891890287399292,0.000244163908,848.2733469599999
1574191643.358791,0.9317891597747803,0.000278035179,970.88734798
1574191643.4068747,0.9798727035522461,0.000311173499,1090.84806638
1574191643.4467423,1.019740343093872,0.000343824737,1209.04554794
1574191643.4867685,1.0597665309906006,0.000375565141,1323.94581042
1574191643.5267446,1.0997426509857178,0.00040647015,1435.8219430000001
1574191643.5747244,1.1477224826812744,0.000437089242,1546.6630560400001
1574191643.6147249,1.18772292137146,0.000467717648,1657.53788576
1574191643.6548152,1.2278132438659668,0.000497346744,1764.79521328
1574191643.694704,1.2677021026611328,0.000526576303,1870.6062168600004
1574191643.7428002,1.315798282623291,0.00055466406,1972.2838972000002
1574191643.7827902,1.355788230895996,0.000582589768,2073.37496016
1574191643.8227084,1.3957064151763916,0.000609486364,2170.74063768
1574191643.8626673,1.4356653690338135,0.000636579469,2268.8176777800004
1574191643.9107208,1.4837188720703125,0.000662440434,2362.4343710800003
1574191643.9506154,1.523613452911377,0.000687542371,2453.30338302
1574191643.9906056,1.5636036396026611,0.000712743029,2544.5297649800004
1574191644.0306048,1.6036028861999512,0.000737152994,2632.89383828
1574191644.0785851,1.651583194732666,0.000761498697,2721.0252831400003
1574191644.1185722,1.6915702819824219,0.000785281882,2807.1204128400004
1574191644.15857,1.7315680980682373,0.00080905389,2893.1750818
1574191644.2265463,1.799544334411621,0.000835341401,2988.33587162
1574191644.25454,1.827538013458252,0.000860509463,3079.44425606
1574191644.3025577,1.8755557537078857,0.0008850554,3168.300548
1574191644.3505433,1.9235413074493408,0.000890825875,3189.1896675000003
1574191644.398509,1.9715070724487305,0.000863552094,3090.45858028
1574191644.446488,2.0194859504699707,0.000818151049,2926.10679738
1574191644.4944768,2.067474842071533,0.000759533606,2713.9116537200002
1574191644.542496,2.1154940128326416,0.000694717281,2479.27655722
1574191644.5904553,2.1634533405303955,0.000627147034,2234.67226308
1574191644.638482,2.211480140686035,0.000557681546,1983.20719652
1574191644.6864433,2.259441375732422,0.000489127822,1735.04271564
1574191644.7345438,2.307541847229004,0.000424056314,1499.4838566800001
1574191644.7825358,2.3555338382720947,0.000362863764,1277.96682568
1574191644.8305228,2.4035208225250244,0.000307431445,1077.3018309000001
1574191644.8785076,2.451505661010742,0.000258036889,898.4935381799999
1574191644.9264545,2.499452590942383,0.000216236338,747.1755435599999
1574191644.9744868,2.547484874725342,0.000182576478,625.32685036
1574191645.0223727,2.5953707695007324,0.00015694648,532.5462576
1574191645.070337,2.6433351039886475,0.000139348209,468.84051658
1574191645.1183183,2.6913163661956787,0.000128900632,431.02028784000004
1574191645.1664362,2.739434242248535,0.000126603991,422.70644742
1574191645.214423,2.7874209880828857,0.000126781873,423.35038025999995
1574191645.262415,2.8354129791259766,0.000126766041,423.29306842
1574191645.3102777,2.8832757472991943,0.000128272921,428.74797401999996
1574191645.3582625,2.931260585784912,0.000163465738,556.14597156
1574191645.4062953,2.9792933464050293,0.000203859992,702.37317104
1574191645.4543638,3.0273618698120117,0.000244663097,850.0804111399999
1574191645.5062222,3.0792202949523926,0.000285199843,996.82343166
1574191645.5502088,3.123206853866577,0.000325121917,1141.34133954
1574191645.5981963,3.171194314956665,0.000363620929,1280.70776298
1574191645.6473372,3.2203352451324463,0.000401730649,1418.66494938
1574191645.6993332,3.2723312377929688,0.000439072028,1553.84074136
1574191645.7433403,3.316338300704956,0.000475535169,1685.8373117800002
1574191645.791447,3.3644449710845947,0.000511378981,1815.5919112200002
1574191645.8393104,3.41230845451355,0.000545977615,1940.8389663000003
1574191645.887423,3.460421085357666,0.000580547377,2065.9815047399998
1574191645.9352815,3.50827956199646,0.000613955781,2186.9199272200003
1574191645.9833882,3.5563862323760986,0.000646644272,2305.2522646400002
1574191646.031247,3.6042449474334717,0.000678275712,2419.75807744
1574191646.0793693,3.652367353439331,0.000709241256,2531.85334672
1574191646.1272237,3.7002217769622803,0.000739494339,2641.3695071800003
1574191646.175345,3.748342990875244,0.000769178383,2748.82574646
1574191646.2233317,3.7963297367095947,0.000797844492,2852.59706104
1574191646.2712376,3.84423565864563,0.00082625635,2955.4479870000005
1574191646.319182,3.8921799659729004,0.000853375532,3053.61942584
1574191646.367163,3.9401609897613525,0.000880711712,3152.57639744
1574191646.4152787,3.988276720046997,0.00090689119,3247.3461078
1574191646.4632707,4.036268711090088,0.000932393596,3339.6648175200003
1574191646.5112538,4.084251880645752,0.000957226381,3429.5594992200004
1574191646.5591154,4.132113456726074,0.000981134363,3516.1063940599997
1574191646.6071033,4.18010139465332,0.00100482814,3601.8778668
1574191646.6551342,4.228132247924805,0.001027615741,3684.36898242
1574191646.7031925,4.276190519332886,0.001049733721,3764.4360700199995
1574191646.7511845,4.324182510375977,0.00107140746,3842.8950052
1574191646.7990606,4.372058629989624,0.001090961508,3913.68065896
1574191646.8471274,4.420125484466553,0.001110779122,3985.4204216400003
1574191646.8951623,4.468160390853882,0.001130011864,4055.04294768
1574191646.9431498,4.51614785194397,0.001148518175,4122.035793499999
1574191646.9910119,4.56400990486145,0.001166482456,4187.06649072
1574191647.0390387,4.61203670501709,0.001183436252,4248.43923224
1574191647.0882676,4.66126561164856,0.001200452447,4310.03785814
1574191647.1362557,4.709253787994385,0.001216839999,4369.36079638
1574191647.1841202,4.757118225097656,0.001233127899,4428.32299438
1574191647.2334204,4.806418418884277,0.001249124296,4486.229951519999
1574191647.2813272,4.854325294494629,0.001264012419,4540.12495678
1574191647.329352,4.902349948883057,0.001278907061,4594.04356082
1574191647.3779957,4.950993776321411,0.001293025911,4645.153797819999
1574191647.4260387,4.99903678894043,0.001307096332,4696.088721839999
1574191647.473969,5.046967029571533,0.001320888288,4746.01560256
1574191647.5219538,5.094951868057251,0.001333532855,4791.788935099999
1574191647.5699458,5.142943859100342,0.001346535981,4838.86025122
1574191647.6179278,5.19092583656311,0.00135828834,4881.403790799999
1574191647.666031,5.2390289306640625,0.001369670033,4922.605519459999
1574191647.7140298,5.287027835845947,0.001380581409,4962.104700579999
1574191647.7620184,5.335016489028931,0.001391093247,5000.15755414
1574191647.8100054,5.38300347328186,0.001401343383,5037.26304646
1574191647.8579943,5.430992364883423,0.00141008012,5068.890034399999
1574191647.9058688,5.478866815567017,0.001419060864,5101.4003276799995
1574191647.95397,5.526968002319336,0.001428397372,5135.198486639999
1574191648.0019627,5.574960708618164,0.001436384395,5164.111509899999
1574191648.049952,5.622950077056885,0.00144435931,5192.9807021999995
1574191648.0979385,5.670936584472656,0.00145132374,5218.1919388
1574191648.1459272,5.71892523765564,0.001457644626,5241.073546119999
1574191648.1920376,5.765035629272461,0.001451287419,5218.060456779999
1574191648.2400315,5.813029527664185,0.001395061612,5014.523035439999
1574191648.2881448,5.861142873764038,0.001306999475,4695.738099499999
1574191648.3360062,5.909004211425781,0.001197823323,4300.520429259999
1574191648.3840842,5.957082271575928,0.001073712483,3851.2391884599997
1574191648.432108,6.005105972290039,0.000938002951,3359.97068262
1574191648.4800534,6.053051471710205,0.000796588138,2848.04905956
1574191648.5280888,6.101086854934692,0.000653522089,2330.14996218
1574191648.57597,6.148967981338501,0.000515191816,1829.3943739200001
1574191648.6239345,6.196932554244995,0.000386808068,1364.64520616
1574191648.6719465,6.2449445724487305,0.00027035363,943.0801406
1574191648.719939,6.2929370403289795,0.000167828053,571.93755186
1574191648.768021,6.341019153594971,8.7417662e-05,280.85193644
1574191648.816011,6.38900899887085,3.1721778e-05,79.23283636
1574191648.8640003,6.43699836730957,-3.726222e-06,-49.088923640000004
1574191648.9119887,6.484986782073975,-3.515929e-05,-162.8766298
1574191648.9599712,6.532969236373901,-4.9174763e-05,-213.61264205999998
1574191649.0078464,6.580844402313232,-5.9817918e-05,-252.14086315999998
1574191649.0559492,6.6289472579956055,-6.0994178e-05,-256.39892436
1574191649.1039393,6.6769373416900635,-6.0554594e-05,-254.80763028
1574191649.1519268,6.724924802780151,-6.0080551e-05,-253.09159462
1574191649.1998127,6.772810697555542,-6.0032122e-05,-252.91628164
1574191649.2478006,6.820798635482788,-5.9670769e-05,-251.60818378
1574191649.2958915,6.868889570236206,-5.9653074e-05,-251.54412788
1574191649.3437488,6.9167468547821045,-5.9508719e-05,-251.02156277999998
1574191649.3918653,6.964863300323486,-3.6636367e-05,-168.22364853999997
1574191649.4398527,7.012850761413574,-1.0105781e-05,-72.18292722000001
1574191649.4878411,7.0608391761779785,1.1644326e-05,6.552460119999999
1574191649.5379837,7.110981702804565,3.6728568e-05,97.35741616000001
1574191649.5859659,7.158963918685913,6.6710636e-05,205.89250232
1574191649.6340396,7.207037687301636,9.9636614e-05,325.08454267999997
1574191649.681944,7.254941940307617,0.000133164227,446.45450174
1574191649.730051,7.303049087524414,0.000170468353,581.49543786
1574191649.7780387,7.351036787033081,0.000208885409,720.5651805800001
1574191649.8260312,7.39902925491333,0.00024736207,859.8506934
1574191649.873909,7.446907043457031,0.000286611728,1001.93445536
1574191649.9220083,7.495006322860718,0.000325247645,1141.7964749
1574191649.9698975,7.542895555496216,0.000363331288,1279.6592625600001
1574191650.0178578,7.590855836868286,0.000400699675,1414.9328235
1574191650.0659752,7.638973236083984,0.000437131152,1546.8147702400001
1574191650.113878,7.686876058578491,0.000473059714,1676.87616468
1574191650.161828,7.73482608795166,0.000507614575,1801.9647615
1574191650.2099369,7.782934904098511,0.000541605987,1925.01367294
1574191650.2577999,7.830797910690308,0.000574392267,2043.7000065399998
1574191650.305916,7.87891411781311,0.000606847927,2161.18949574
1574191650.3539038,7.926901817321777,0.000638510101,2275.80656562
1574191650.4018908,7.974888801574707,0.000668620691,2384.80690142
1574191650.449879,8.022876977920532,0.000698534772,2493.09587464
1574191650.497742,8.070739984512329,0.000727132894,2596.62107628
1574191650.545767,8.118765115737915,0.000756115653,2701.5386638600003
1574191650.5937414,8.166739463806152,0.000784512609,2804.33564458
1574191650.641698,8.214695930480957,0.000812635757,2906.1414403400004
1574191650.7176778,8.29067587852478,0.000840180553,3005.8536018600003
1574191650.737672,8.310670137405396,0.00086652115,3101.206563
1574191650.7857318,8.358729839324951,0.000892968848,3196.94722976
1574191650.8337665,8.406764507293701,0.000918583944,3289.67387728
1574191650.881637,8.45463514328003,0.000943157822,3378.63131564
1574191650.9297564,8.50275444984436,0.00096712634,3465.3973508
1574191650.977745,8.550743103027344,0.000989996828,3548.1885173600003
1574191651.025728,8.598726034164429,0.00101243984,3629.4322208000003
1574191651.0737233,8.646721363067627,0.00103387516,3707.0280792000003
1574191651.1215775,8.694575548171997,0.001054427586,3781.42786132
1574191651.1696951,8.742693185806274,0.001073870808,3851.8123249600003
1574191651.2176821,8.790680170059204,0.001092069782,3917.69261084
1574191651.2649546,8.837952613830566,0.001109508798,3980.82184876
1574191651.3137755,8.886773586273193,0.001128295437,4048.8294819400003
1574191651.3618093,8.934807300567627,0.001146833412,4115.93695144
1574191651.4097955,8.98279356956482,0.001165270805,4182.680314099999
1574191651.4577847,9.030782699584961,0.001182856038,4246.338857559999
1574191651.5056455,9.078643560409546,0.001199788414,4307.63405868
1574191651.5536308,9.126628875732422,0.0012158053,4365.615186
1574191651.6016474,9.17464542388916,0.001230814494,4419.948468279999
1574191651.6496656,9.222663640975952,0.001215687022,4365.18701964
1574191651.6976225,9.270620584487915,0.001165855676,4184.79754712
1574191651.7457135,9.318711519241333,0.001092016697,3917.50044314
1574191651.7936008,9.366598844528198,0.00100306049,3595.4789738000004
1574191651.8416896,9.414687633514404,0.000902142376,3230.15540112
1574191651.8896754,9.462673425674438,0.000794943422,2842.0951876400004
1574191651.9376636,9.510661602020264,0.000681465492,2431.30508104
1574191651.985655,9.558653116226196,0.000569349155,2025.4439410999998
1574191652.0336382,9.60663628578186,0.0004613325,1634.4236500000002
1574191652.0816238,9.654621839523315,0.000360566191,1269.64961142
1574191652.1275792,9.70057725906372,0.000268366188,935.88560056
1574191652.1756992,9.748697280883789,0.000188058242,645.1708360399999
1574191652.2236848,9.796682834625244,0.00012254063,407.9970806
1574191652.2716737,9.844671726226807,7.3525123e-05,230.56094526
1574191652.3195784,9.892576456069946,3.9462931e-05,107.25581022000003
1574191652.3675277,9.940525770187378,2.1120533e-05,40.85632945999999
1574191652.4156384,9.988636493682861,6.285496e-06,-12.84650448
1574191652.4635804,10.03657841682434,-1.675449e-06,-41.66512538
1574191652.5115287,10.084526777267456,-3.111549e-06,-46.86380738
1574191652.559472,10.13247013092041,-2.984889e-06,-46.40529818
1574191652.6074588,10.18045687675476,-2.601184e-06,-45.01628608
1574191652.667443,10.240441083908081,-2.601184e-06,-45.01628608
1574191652.7034492,10.276447296142578,-2.398156e-06,-44.28132472
1574191652.7514575,10.324455499649048,-1.790933e-06,-42.08317746
1574191652.7994149,10.372412919998169,2.5865622e-05,58.03355163999999
1574191652.8475251,10.420523166656494,5.5573881e-05,165.57744922
1574191652.8955188,10.468516826629639,8.7215565e-05,280.1203453
1574191652.9435065,10.516504526138306,0.000120510347,400.64745614
1574191652.9913745,10.564372539520264,0.00015629828,530.1997736
1574191653.0394795,10.612477540969849,0.000194348395,667.9411898999999
1574191653.087342,10.660340070724487,0.000233008526,807.89086412
1574191653.1354513,10.708449363708496,0.000271859579,948.53167598
1574191653.1834426,10.75644063949585,0.00031061843,1088.8387166
1574191653.2313488,10.804346799850464,0.000348541886,1226.12162732
1574191653.2817585,10.854756593704224,0.000385501422,1359.91514764
1574191653.3297467,10.902744770050049,0.000422204845,1492.7815389000002
1574191653.377735,10.950732946395874,0.000458188355,1623.0418451
1574191653.4240623,10.997060298919678,0.000493756495,1751.7985119000002
1574191653.4728222,11.045820236206055,0.000528350472,1877.02870864
1574191653.5208404,11.093838453292847,0.000561714172,1997.80530264
1574191653.5688004,11.141798496246338,0.000595309772,2119.42137464
1574191653.6167905,11.189788579940796,0.000627881847,2237.33228614
1574191653.6649108,11.237908840179443,0.000659377314,2351.34587668
1574191653.7128952,11.285893201828003,0.0006901538,2462.756756
1574191653.7608366,11.333834648132324,0.000719774514,2569.9837406799998
1574191653.8100834,11.383081436157227,0.000749350525,2677.0489005000004
1574191653.8580072,11.431005239486694,0.000778177753,2781.4034658600003
1574191653.9060817,11.479079723358154,0.000806747004,2884.8241544800003
1574191653.9540818,11.527079820632935,0.000834601931,2985.65899022
1574191654.001973,11.574970960617065,0.000861255452,3082.1447362400004
1574191654.0499828,11.622980833053589,0.000888003968,3178.97436416
1574191654.0953093,11.668307304382324,0.000913199969,3270.18388778
1574191654.1431663,11.716164350509644,0.000938173383,3360.58764646
1574191654.191157,11.764155149459839,0.000962003134,3446.85134508
1574191654.2392688,11.812266826629639,0.000985154882,3530.66067284
1574191654.2872572,11.860255241394043,0.001008485444,3615.1173072799997
1574191654.3352478,11.90824580192566,0.001030763611,3695.76427182
1574191654.383102,11.95609998703003,0.001052549109,3774.6277745800003
1574191654.439222,12.01222014427185,0.00107341446,3850.1603452000004
1574191654.4870749,12.060072898864746,0.00109339878,3922.5035835999997
1574191654.5351856,12.10818362236023,0.001113192178,3994.15568436
1574191654.5830505,12.15604853630066,0.001132315956,4063.38376072
1574191654.6310468,12.204044818878174,0.001150663942,4129.803470039999
1574191654.6790347,12.25203275680542,0.001168598421,4194.726284019999
1574191654.7270308,12.300028800964355,0.001185379922,4255.47531764
1574191654.7751348,12.348132848739624,0.001202476211,4317.36388382
1574191654.823123,12.39612102508545,0.001218429767,4375.11575654
1574191654.871109,12.444107055664062,0.001234728843,4434.11841166
1574191654.9190986,12.492096662521362,0.001250193454,4490.10030348
1574191654.9670868,12.540084838867188,0.001264550723,4542.07361726
1574191655.015035,12.588032960891724,0.001279244199,4595.26400038
1574191655.06321,12.636208057403564,0.001292745583,4644.13901046
1574191655.1110897,12.684087753295898,0.001307079569,4696.02803978
1574191655.1591852,12.73218321800232,0.001320557669,4744.8187617799995
1574191655.207046,12.780044078826904,0.001333481632,4791.603507839999
1574191655.2551608,12.828158855438232,0.001345772296,4836.09571152
1574191655.3030462,12.876044273376465,0.001357599162,4878.908966439999
1574191655.3510077,12.92400574684143,0.001368936151,4919.9488666199995
1574191655.4002733,12.973271369934082,0.001379839145,4959.417704899999
1574191655.4481614,13.021159410476685,0.00139081385,4999.146137
1574191655.4962537,13.069251775741577,0.001401249319,5036.92253478
1574191655.5441108,13.117108821868896,0.001410737634,5071.27023508
1574191655.592094,13.16509199142456,0.001419806853,5104.10080786
1574191655.6412697,13.21426773071289,0.001428738236,5136.43241432
1574191655.6892107,13.262208700180054,0.001437006518,5166.36359516
1574191655.7373173,13.310315370559692,0.001445132308,5195.77895496
1574191655.7852323,13.358230352401733,0.001452622004,5222.8916544799995
1574191655.833305,13.40630292892456,0.001459786668,5248.827738159999
1574191655.881169,13.454167127609253,0.00146663934,5273.634410799999
1574191655.929151,13.502149105072021,0.001472090371,5293.367143019999
1574191655.9771852,13.550183296203613,0.001478197053,5315.473331859999
1574191656.025249,13.598247051239014,0.001482889988,5332.461756559999
1574191656.0731492,13.64614725112915,0.001489863731,5357.706706219999
1574191656.1211476,13.694145679473877,0.001495659351,5378.68685062
1574191656.1690938,13.74209189414978,0.001501148567,5398.55781254
1574191656.2172046,13.790202617645264,0.001507031731,5419.854866219999
1574191656.2650661,13.838064193725586,0.001510690898,5433.101050759999
1574191656.31318,13.886178016662598,0.001516047865,5452.4932713
1574191656.3611748,13.934172868728638,0.001522493549,5475.8266473799995
1574191656.4090579,13.982055902481079,0.001526792534,5491.388973079999
1574191656.4570851,14.030083179473877,0.001531182788,5507.281692559999
1574191656.5051425,14.078140497207642,0.001535132527,5521.57974774
1574191656.5530005,14.125998497009277,0.001538953744,5535.41255328
1574191656.6009798,14.173977851867676,0.001544317231,5554.82837622
