Time, Time Since Begin, V/V Raw Data, Force 
1578502424.7510793,0.2648279666900635,-0.00019001402,-732.537898208
1578502424.799053,0.3128015995025635,-0.000191431493,-737.6838921872001
1578502424.8394313,0.353179931640625,-0.000192590058,-741.8899465632
1578502424.8790143,0.3927628993988037,-0.000192400999,-741.2035867696001
1578502424.9190652,0.4328138828277588,-0.000191912986,-739.4319043744
1578502424.9674616,0.48121023178100586,-0.000190252438,-733.4034509152
1578502425.00748,0.521228551864624,-0.000188776292,-728.0444504768001
1578502425.0476985,0.5614471435546875,-0.000187640078,-723.9195391712
1578502425.0874338,0.6011824607849121,-0.000187862664,-724.7276153856
1578502425.1358469,0.6495954990386963,-0.000188386999,-726.6311611696
1578502425.1749241,0.6886727809906006,-0.000190012157,-732.5311347728
1578502425.2156456,0.7293941974639893,-0.000191513449,-737.9814252496
1578502425.2558382,0.7695868015289307,-0.000192597508,-741.9169930432
1578502425.3038104,0.817559003829956,-0.000192409381,-741.2340167824
1578502425.343796,0.8575446605682373,-0.000191890635,-739.350761304
1578502425.3829274,0.8966760635375977,-0.00019028876,-733.5353143039999
1578502425.4235847,0.937333345413208,-0.0001888033,-728.14250032
1578502425.4714425,0.9851911067962646,-0.000187669881,-724.0277359824
1578502425.5116658,1.0254144668579102,-0.000187827274,-724.5991355296
1578502425.551728,1.065476655960083,-0.000188356265,-726.5195844560001
1578502425.5917053,1.1054539680480957,-0.000189967453,-732.3688413712
1578502425.6396806,1.1534292697906494,-0.000191417523,-737.6331754992001
1578502425.6796548,1.1934034824371338,-0.000192550011,-741.7445599344001
1578502425.7197473,1.2334959506988525,-0.000192348845,-741.014246888
1578502425.7594807,1.2732293605804443,-0.00019190833,-739.415001232
1578502425.8069801,1.3207287788391113,-0.000190262683,-733.4406443632
1578502425.8469381,1.3606867790222168,-0.000188805163,-728.1492637552001
1578502425.8873065,1.401055097579956,-0.000187653117,-723.9668759568
1578502425.9272845,1.441033124923706,-0.000187768601,-724.3861290704
1578502425.977254,1.4910025596618652,-0.000188320875,-726.3911046000001
1578502426.0152342,1.5289828777313232,-0.000189938582,-732.2640280928
1578502426.0552106,1.5689592361450195,-0.000191436149,-737.7007953295999
1578502426.095188,1.6089365482330322,-0.000192698091,-742.2821495664
1578502426.1431603,1.6569089889526367,-0.000192589127,-741.8865666608
1578502426.183161,1.6969096660614014,-0.000191869214,-739.2729945056
1578502426.223773,1.7375216484069824,-0.000190271065,-733.471074376
1578502426.2713044,1.785053014755249,-0.000187365338,-722.9221230752
1578502426.3197832,1.8335318565368652,-0.000192067586,-739.9931642143999
1578502426.3677332,1.8814818859100342,-0.000189700164,-731.3984753856
1578502426.4157188,1.9294674396514893,-0.000189117156,-729.2819231424
1578502426.4638612,1.9776098728179932,-0.000192207284,-740.5003238336
1578502426.5118163,2.0255649089813232,-0.000187582336,-723.7099126144001
1578502426.559393,2.073141574859619,-0.000192017294,-739.8105841376
1578502426.6074767,2.121225357055664,-0.00018964801,-731.2091355040001
1578502426.6558373,2.169585943222046,-0.000189132988,-729.3393996351999
1578502426.7037396,2.2174882888793945,-0.000192188658,-740.4327040032
1578502426.7511954,2.264944076538086,-0.000187542289,-723.5645259856
1578502426.7992995,2.3130481243133545,-0.000192073174,-740.0134508896
1578502426.8469846,2.3607332706451416,-0.000189681537,-731.3308519248
1578502426.8953862,2.409134864807129,-0.000189138576,-729.3596863104
1578502426.9436018,2.457350492477417,-0.000192193314,-740.4496071456
1578502426.991269,2.5050177574157715,-0.000187592581,-723.7471060624
1578502427.0394099,2.5531585216522217,-0.000192266889,-740.7167138256
1578502427.087074,2.600822687149048,-0.000189627521,-731.1347522384
1578502427.1356997,2.6494483947753906,-0.000189116225,-729.27854324
1578502427.183233,2.69698166847229,-0.000192420557,-741.2745901328
1578502427.2317903,2.7455389499664307,-0.000187289901,-722.6482565904
1578502427.2799482,2.793696880340576,-0.00019226782,-740.720093728
1578502427.3272767,2.8410253524780273,-0.000190468505,-734.187860552
1578502427.3757432,2.8894917964935303,-0.000189805403,-731.7805350512
1578502427.423726,2.9374747276306152,-0.000190540217,-734.4482037968
1578502427.471013,2.9847617149353027,-0.000189428218,-730.4112026272
1578502427.5193396,3.033088207244873,-0.000190447085,-734.1100973839999
1578502427.5675375,3.0812861919403076,-0.000189933926,-732.2471249504
1578502427.6155818,3.1293303966522217,-0.000189838931,-731.9022551024
1578502427.6636355,3.1773841381073,-0.000190502964,-734.3129605056
1578502427.7117682,3.2255167961120605,-0.000189473853,-730.5768759312
1578502427.7590835,3.272832155227661,-0.000190441497,-734.0898107088001
1578502427.8071547,3.3209033012390137,-0.000189933926,-732.2471249504
1578502427.855842,3.3695907592773438,-0.000189838931,-731.9022551024
1578502427.9033647,3.4171133041381836,-0.000190523453,-734.3873437712001
1578502427.9514544,3.465203046798706,-0.000189498998,-730.6681623392
1578502427.9994838,3.513232469558716,-0.000190429389,-734.0458538256
1578502428.047914,3.5616626739501953,-0.000189963728,-732.3553181312
1578502428.0956862,3.6094348430633545,-0.000189173035,-729.484786264
1578502428.1436474,3.657396078109741,-0.00019235909,-741.051440336
1578502428.1915822,3.7053308486938477,-0.000187301077,-722.6888299408
1578502428.239764,3.7535126209259033,-0.000192316249,-740.8959103696
1578502428.28775,3.8014986515045166,-0.000189452432,-730.4991091328001
1578502428.335125,3.8488736152648926,-0.000189191662,-729.5524097248
1578502428.3831053,3.8968539237976074,-0.000192360952,-741.0582001408
1578502428.4315195,3.945268154144287,-0.000187228434,-722.4251067936
1578502428.4792733,3.9930219650268555,-0.000192360021,-741.0548202384
1578502428.527796,4.041544675827026,-0.00018937327,-730.211719408
1578502428.5757315,4.08948016166687,-0.000189107843,-729.2481132272001
1578502428.6233518,4.137100458145142,-0.000192404725,-741.21711364
1578502428.6713374,4.185086011886597,-0.000187532045,-723.527336168
1578502428.718998,4.232746601104736,-0.000191937201,-739.5198145104
1578502428.7672586,4.281007289886475,-0.00018950738,-730.698592352
1578502428.8159015,4.329650163650513,-0.000189200044,-729.5828397376
1578502428.8635445,4.377293109893799,-0.000192072242,-740.0100673568
1578502428.9117932,4.425541877746582,-0.000187559985,-723.6287695440001
1578502428.9591227,4.47287130355835,-0.000192022882,-739.8308708128
1578502429.0073495,4.5210981369018555,-0.000189407729,-730.3368193616001
1578502429.0555618,4.569310426712036,-0.000189253129,-729.7755595216
1578502429.103263,4.617011547088623,-0.000192100182,-740.1115007328001
1578502429.151747,4.6654956340789795,-0.000187533908,-723.5340996032
1578502429.199873,4.713621616363525,-0.000192052685,-739.939067624
1578502429.2475114,4.761260032653809,-0.000189388171,-730.2658159984
1578502429.2956607,4.8094093799591064,-0.000189286657,-729.8972795728
1578502429.3431501,4.856898784637451,-0.000192061998,-739.9728775392001
1578502429.3911,4.904848575592041,-0.000187519938,-723.4833829152
1578502429.4394493,4.953197956085205,-0.000168872997,-655.7875283088
1578502429.4871702,5.000918865203857,-6.0951337e-05,-263.9887338448
1578502429.5351477,5.048896312713623,4.7625042e-05,130.1869524768
1578502429.5835812,5.09732985496521,0.000222944655,766.667275512
1578502429.6308432,5.144591808319092,0.000412669964,1455.4460373056
1578502429.6798296,5.193578243255615,0.00053890422,1913.7268802879998
1578502429.7274673,5.241215944290161,0.000570524484,2028.5210867136
1578502429.7758274,5.289576053619385,0.000568453223,2021.0015807792
1578502429.8235836,5.337332248687744,0.000564913265,2008.150117256
1578502429.8713517,5.385100364685059,0.000568833202,2022.3810565408
1578502429.9193237,5.433072328567505,0.000564002432,2004.8434291327999
1578502429.9671896,5.480938196182251,0.000566462986,2013.7762243743998
1578502430.0152798,5.529028415679932,0.000566077419,2012.3764619376
1578502430.0639074,5.577656030654907,0.000563271344,2002.1892872576
1578502430.1117003,5.625448942184448,0.000567440875,2017.3263525999998
1578502430.1598284,5.673577070236206,0.0005629519,2001.02957776
1578502430.2077744,5.72152304649353,0.000565568916,2010.5303926464
1578502430.2550852,5.768833875656128,0.000565295108,2009.5363600832
1578502430.3034382,5.8171868324279785,0.000562650152,1999.9341118208
1578502430.3517957,5.865544319152832,0.000566987321,2015.6797701584003
1578502430.399604,5.913352727890015,0.000562347472,1998.8352623488
1578502430.4477897,5.961538314819336,0.000565059483,2008.6809470832002
1578502430.495132,6.008880615234375,0.000564795919,2007.7241043376
1578502430.543862,6.057610750198364,0.000562076457,1997.8513694928001
1578502430.591401,6.105149745941162,0.000566399656,2013.5463111423999
1578502430.6397371,6.1534857749938965,0.000561906025,1997.2326331600002
1578502430.6873562,6.2011048793792725,0.000564521179,2006.7266882416
1578502430.7358701,6.249618768692017,0.000564445741,2006.4528181263997
1578502430.7838192,6.297567844390869,0.000561793335,1996.8235233839998
1578502430.8310049,6.3447535037994385,0.000566171482,2012.7179482528002
1578502430.8791263,6.3928749561309814,0.000561546534,1995.9275370336002
1578502430.9277837,6.441532373428345,0.000564408489,2006.3175784655998
1578502430.9756029,6.489351511001587,0.000564274378,2005.8307018912003
1578502431.0238276,6.537576198577881,0.000561575405,1996.032350312
1578502431.070975,6.584723711013794,0.000565984286,2012.0383518944002
1578502431.1198194,6.633568048477173,0.000562983565,2001.144534376
1578502431.1672232,6.68097186088562,0.000563528389,2003.1224634255998
1578502431.21515,6.728898763656616,0.000563569367,2003.2712299568002
1578502431.2632873,6.77703595161438,0.000562841073,2000.6272314192001
1578502431.3115811,6.825329780578613,0.000563820824,2004.1841194496
1578502431.3590083,6.8727569580078125,0.000562841073,2000.6272314192001
1578502431.407614,6.921362638473511,0.0005633533,2002.48682032
1578502431.4557033,6.969451904296875,0.000563396141,2002.6423502863997
1578502431.5032108,7.0169594287872314,0.00056268461,2000.059208144
1578502431.5513089,7.0650575160980225,0.000563718379,2003.8122031215999
1578502431.5998209,7.113569498062134,0.000562730245,2000.224881448
1578502431.6471474,7.160896062850952,0.000563229434,2002.0371371936
1578502431.6958172,7.209565877914429,0.000563632697,2003.5011431888001
1578502431.743719,7.257467746734619,0.000560961664,1993.8042249855998
1578502431.7908792,7.304627895355225,0.000565341674,2009.7054132896003
1578502431.8399286,7.353677272796631,0.000560808927,1993.2497285808
1578502431.8878593,7.401607990264893,0.000563672744,2003.6465298176001
1578502431.9352834,7.4490320682525635,0.000563457608,2002.8655000832
1578502431.9837108,7.497459411621094,0.000560746528,1993.0231952512001
1578502432.0310836,7.544832229614258,0.000565282069,2009.4890232976002
1578502432.0798192,7.593567848205566,0.000560745597,1993.0198153488
1578502432.1275585,7.64130711555481,0.00056355074,2003.203606496
1578502432.1756651,7.689413785934448,0.000563348643,2002.4699135472001
1578502432.223817,7.737565755844116,0.000560713001,1992.9014788304
1578502432.2715569,7.785305500030518,0.000565160066,2009.0461036064
1578502432.3197405,7.833489179611206,0.000560604967,1992.5092721967999
1578502432.3678162,7.8815648555755615,0.000563537702,2003.1562733408002
1578502432.4154747,7.929223299026489,0.000563184731,2001.8748474224
1578502432.4631016,7.976850271224976,0.000560645014,1992.6546588255999
1578502432.511229,8.024977684020996,0.000565088354,2008.7857603616
1578502432.559775,8.073523759841919,0.000560414046,1991.8161525983999
1578502432.6072302,8.120978832244873,0.000563468784,2002.9060734336
1578502432.6557186,8.169467210769653,0.000563166104,2001.8072239616001
1578502432.7038167,8.217565298080444,0.000560662709,1992.7188987536
1578502432.7513134,8.265062093734741,0.000565067865,2008.7113770959998
1578502432.7994127,8.313161373138428,0.000560447574,1991.9378726496002
1578502432.847818,8.361566543579102,0.000563502312,2003.0277934847998
1578502432.8952253,8.408973932266235,0.00056314189,2001.719317456
1578502432.943826,8.457574605941772,0.00056065619,1992.695232176
1578502432.9912589,8.50500750541687,0.000564978458,2008.3867939231998
1578502433.0396845,8.553433179855347,0.000560373999,1991.6707659695999
1578502433.0874722,8.601220846176147,0.000563341193,2002.4428670671998
1578502433.135572,8.649320602416992,0.000562933274,2000.9619579296002
1578502433.1835852,8.697333812713623,0.000560487621,1992.0832592784002
1578502433.2314575,8.745206117630005,0.000564792193,2007.7105774672002
1578502433.2795827,8.793331384658813,0.000560281798,1991.3360394592
1578502433.3277075,8.841456174850464,0.000563330948,2002.4056736192001
1578502433.3754194,8.88916802406311,0.00056300126,2001.208774304
1578502433.4235568,8.937305450439453,0.000560682267,1992.7899021167998
1578502433.4709182,8.98466682434082,0.000565018505,2008.532180552
1578502433.5199327,9.033681392669678,0.000560518354,1992.1948323616
1578502433.567751,9.081499576568604,0.000563509762,2003.0548399648
1578502433.61504,9.128788709640503,0.000563208014,2001.9593740256
1578502433.6638536,9.177602291107178,0.000560800545,1993.2192985679999
1578502433.7110376,9.224786281585693,0.00056562759,2010.7434027359998
1578502433.7592902,9.273038864135742,0.000560120679,1990.7511130415999
1578502433.807026,9.320774555206299,0.000563709997,2003.7817731088
1578502433.8553147,9.369063377380371,0.000563208945,2001.9627539279998
1578502433.903481,9.417229652404785,0.000560351647,1991.5896192687999
1578502433.9512,9.464948654174805,0.000565554015,2010.476296056
1578502433.998966,9.512714624404907,0.000560109504,1990.7105433216
1578502434.0478215,9.561570167541504,0.000563774258,2004.0150662432
1578502434.0957072,9.609455823898315,0.000563216396,2001.9898040384
1578502434.1435678,9.657316446304321,0.000560393557,1991.7417693328
1578502434.191771,9.705519676208496,0.000565545633,2010.4458660432003
1578502434.2397358,9.75348448753357,0.000560016371,1990.3724332784
1578502434.2877612,9.801509857177734,0.000563756563,2003.9508263152002
1578502434.3358235,9.84957218170166,0.000563200563,2001.9323239151997
1578502434.383018,9.896766662597656,0.00056033209,1991.5186195360002
1578502434.4312394,9.944988012313843,0.000565494411,2010.2599096944002
1578502434.4797916,9.993540287017822,0.000560030341,1990.4231499664002
1578502434.527232,10.040980577468872,0.000563753769,2003.9406829776
1578502434.5756326,10.089381217956543,0.000563156791,2001.7734140464
1578502434.6238058,10.137554407119751,0.000560380518,1991.6944325471998
1578502434.6713588,10.185107469558716,0.000565489754,2010.2430029216
1578502434.719808,10.233556747436523,0.000559925102,1990.0410903007999
1578502434.7673519,10.281100511550903,0.000563825481,2004.2010262224
1578502434.8150795,10.32882809638977,0.000563142821,2001.7226973583997
1578502434.863467,10.37721562385559,0.00056021288,1991.085839552
1578502434.9114416,10.425190210342407,0.000565337017,2009.6885065168
1578502434.9597638,10.473512411117554,0.00055969879,1989.2194872159998
1578502435.0078044,10.521553039550781,0.000563457608,2002.8655000832
1578502435.0549326,10.568681240081787,0.000562548637,1999.5655717648
1578502435.1031215,10.616870164871216,0.000559633598,1988.9828141792
1578502435.1510077,10.664756298065186,0.000564887188,2008.0554473152
1578502435.1990497,10.712798357009888,0.000559187494,1987.3632782176
1578502435.2470653,10.76081395149231,0.000563181937,2001.8647040848
1578502435.2951112,10.808859825134277,0.000562348403,1998.8386422511999
1578502435.3433316,10.857080221176147,0.00055956468,1988.732614272
1578502435.3914034,10.905152082443237,0.000564577989,2006.9329312655998
1578502435.4398015,10.953550100326538,0.000559140928,1987.1942250112002
1578502435.4878042,11.001552820205688,0.000562971458,2001.1005811232
1578502435.5354488,11.049197435379028,0.000562263653,1998.5309658512
1578502435.583708,11.097456693649292,0.000559631735,1988.9760507439998
1578502435.630801,11.14454960823059,0.000564672984,2007.2778011136
1578502435.6796963,11.193444967269897,0.000559302047,1987.7791514288
1578502435.7277617,11.241510391235352,0.000563146546,2001.7362205984
1578502435.7755625,11.289311170578003,0.000562355854,1998.8656923616
1578502435.8238003,11.337548971176147,0.000559673645,1989.1282008080002
1578502435.8714085,11.385157108306885,0.000564697199,2007.3657112496
1578502435.9195428,11.4332914352417,0.000559287146,1987.7250548383997
1578502435.9675677,11.481316328048706,0.000563070178,2001.4589742112
1578502436.0156658,11.529414415359497,0.00056234654,1998.8318788160002
1578502436.0636902,11.577438831329346,0.000559637323,1988.9963374192
1578502436.1112244,11.624973058700562,0.000564614311,2007.0647946544002
1578502436.1597576,11.673506259918213,0.000559228472,1987.5120447488
1578502436.2077549,11.721503496170044,0.000563070178,2001.4589742112
1578502436.2554975,11.769246101379395,0.000562284142,1998.6053491168
1578502436.3037999,11.817548513412476,0.000559604727,1988.8780009008
1578502436.3510764,11.864825010299683,0.000564594753,2006.9937912911998
1578502436.3998027,11.913551330566406,0.000559132546,1987.1637949984001
1578502436.4474423,11.961190938949585,0.000563044101,2001.3643042704
1578502436.495091,12.00883960723877,0.000562213361,1998.3483857743997
1578502436.5437467,12.057495355606079,0.000559621491,1988.9388609264001
1578502436.5909803,12.104728937149048,0.000564627349,2007.1121278096
1578502436.6392217,12.152970314025879,0.000559134409,1987.1705584335998
1578502436.6873229,12.201071500778198,0.000563004985,2001.2222975440002
1578502436.7357955,12.249544143676758,0.000562229194,1998.4058658976
1578502436.7836797,12.297428369522095,0.000559439883,1988.2795512431999
1578502436.8313057,12.345054388046265,0.000504211523,1787.7785130992002
1578502436.879747,12.393495559692383,0.000335913152,1176.7881070208
1578502436.9271293,12.440877914428711,0.000125825405,414.08555031199995
1578502436.975799,12.489547729492188,-6.585382e-06,-66.6185708128
1578502437.0234268,12.537175416946411,-0.000156979077,-612.6078411408
1578502437.070891,12.584639549255371,-0.000308492221,-1162.6611591184
1578502437.1197124,12.633460998535156,-0.000433828682,-1617.6826471328002
1578502437.1668477,12.680596351623535,-0.00045200251,-1683.660912304
1578502437.215856,12.729604721069336,-0.000449694693,-1675.2826134672
1578502437.2636113,12.777359962463379,-0.000450704247,-1678.9476983088
1578502437.3118095,12.825558185577393,-0.000444909558,-1657.9106593632
1578502437.3597922,12.873540878295898,-0.000449567102,-1674.8194071008002
1578502437.4070587,12.920807361602783,-0.000445181504,-1658.8979321216
1578502437.4556744,12.969423055648804,-0.000446877442,-1665.0548654368001
1578502437.503795,13.01754355430603,-0.000448560342,-1671.1644655968
1578502437.5517926,13.06554126739502,-0.000442628749,-1649.6304103696
1578502437.599082,13.112830638885498,-0.000447900966,-1668.7706669663999
1578502437.6471474,13.160896062850952,-0.00044374913,-1653.697841552
1578502437.6953948,13.20914340019226,-0.000444451347,-1656.2471701488
1578502437.743065,13.256813764572144,-0.00044679828,-1664.767475712
1578502437.7914665,13.305215120315552,-0.000441771001,-1646.5164420304
1578502437.8395958,13.353344440460205,-0.000446927734,-1665.2374455136
1578502437.8877192,13.40146780014038,-0.000442925841,-1650.7089731664
1578502437.9352295,13.448978185653687,-0.000443705358,-1653.5389316832
1578502437.9831374,13.496886014938354,-0.000445997342,-1661.8597503967999
1578502438.0316849,13.545433521270752,-0.00044109486,-1644.061779744
1578502438.079794,13.593542575836182,-0.000446285121,-1662.9045032784
1578502438.1277897,13.641538381576538,-0.000442358665,-1648.649897416
1578502438.1757514,13.689500093460083,-0.000443378463,-1652.3521720752
1578502438.2231662,13.736914873123169,-0.000443772413,-1653.7823681552002
