Time, Time Since Begin, V/V Raw Data, Force 
1578503446.2660766,0.2819812297821045,-0.000160908327,-626.8725903408
1578503446.30629,0.32219457626342773,-0.000159490854,-621.7265963616001
1578503446.34608,0.3619847297668457,-0.000158106908,-616.7023188032
1578503446.3943799,0.41028451919555664,-0.000157924369,-616.0396292176
1578503446.434674,0.4505786895751953,-0.000158393756,-617.7436917824
1578503446.474102,0.490006685256958,-0.000160044059,-623.7349517936001
1578503446.5140834,0.5299880504608154,-0.000161408447,-628.6882259888
1578503446.562672,0.5785765647888184,-0.000162771903,-633.6381166512
1578503446.6028209,0.6187255382537842,-0.000162911601,-634.1452762704
1578503446.6420386,0.6579432487487793,-0.000162416138,-632.3465473952
1578503446.6826575,0.6985621452331543,-0.000160736032,-626.2470905728001
1578503446.7307718,0.7466764450073242,-0.000159364194,-621.2667698976
1578503446.7699773,0.7858819961547852,-0.000158029608,-616.4216888832
1578503446.8106747,0.8265793323516846,-0.000158009119,-616.3473056176
1578503446.850424,0.8663287162780762,-0.000158515759,-618.1866114736
1578503446.898581,0.9144856929779053,-0.000160162337,-624.1643482448
1578503446.9379675,0.9538722038269043,-0.000161532313,-629.1379091152
1578503446.9779727,0.9938774108886719,-0.000162834302,-633.8646499808
1578503447.017947,1.0338516235351562,-0.000162853859,-633.9356497136
1578503447.0659187,1.0818233489990234,-0.000162356533,-632.1301574032
1578503447.1068997,1.1228044033050537,-0.000160634518,-625.8785541472
1578503447.145873,1.1617777347564697,-0.000159271993,-620.9320433872
1578503447.1868494,1.202754020690918,-0.000157980248,-616.2424923392
1578503447.2338223,1.2497270107269287,-0.000158076175,-616.59074572
1578503447.2738903,1.289794921875,-0.00015856605,-618.3691879200001
1578503447.3138688,1.3297734260559082,-0.000160242431,-624.4551215024
1578503447.3538442,1.369748830795288,-0.000161677599,-629.6653554096
1578503447.4018195,1.4177241325378418,-0.000162914395,-634.155419608
1578503447.4417937,1.4576983451843262,-0.00016276259,-633.604306736
1578503447.4817715,1.497676134109497,-0.000162211247,-631.6027111088
1578503447.5227485,1.5386531352996826,-0.000160550699,-625.5742576496
1578503447.5707207,1.586625337600708,-0.000159111805,-620.350496872
1578503447.6106968,1.6266014575958252,-0.000157902949,-615.9618660496
1578503447.6501539,1.6660585403442383,-0.000158110633,-616.7158420432
1578503447.6898484,1.7057530879974365,-0.000158702023,-618.8628242992
1578503447.7387714,1.754676103591919,-0.000161803328,-630.1218019712001
1578503447.786607,1.8025116920471191,-0.000160514377,-625.4423942608
1578503447.8339348,1.849839448928833,-0.000158722512,-618.9372075648
1578503447.8827717,1.8986763954162598,-0.000162679702,-633.3033901408
1578503447.9305835,1.9464881420135498,-0.00015791133,-615.992292432
1578503447.97877,1.9946746826171875,-0.000161875971,-630.3855251184
1578503448.0265527,2.042457342147827,-0.000160465017,-625.2631977168
1578503448.0746715,2.090576171875,-0.000158729032,-618.9608777728
1578503448.1220112,2.137915849685669,-0.00016277656,-633.6550234240001
1578503448.1699834,2.1858880519866943,-0.000157930888,-616.0632957952
1578503448.2182815,2.2341861724853516,-0.000161930919,-630.5850083376
1578503448.266494,2.2823987007141113,-0.00016046688,-625.2699611520001
1578503448.3146765,2.3305811882019043,-0.000158826821,-619.3158909584
1578503448.362374,2.3782787322998047,-0.00016270671,-633.401439984
1578503448.4104965,2.426401138305664,-0.000157926232,-616.0463926527999
1578503448.458083,2.473987579345703,-0.00016194582,-630.639104928
1578503448.5061147,2.522019386291504,-0.000160412863,-625.0738578352
1578503448.5546033,2.5705080032348633,-0.000158883631,-619.5221339824
1578503448.6024878,2.6183924674987793,-0.000162662007,-633.2391502128
1578503448.6507764,2.6666810512542725,-0.000157923438,-616.0362493152
1578503448.6979501,2.7138547897338867,-0.000162029639,-630.9434014256
1578503448.7467637,2.7626683712005615,-0.000160351396,-624.8507080384001
1578503448.7941468,2.810051441192627,-0.000158949755,-619.762190552
1578503448.8427765,2.8586812019348145,-0.000162682496,-633.3135334784
1578503448.890054,2.905958652496338,-0.000157875009,-615.8604326736
1578503448.9386063,2.9545109272003174,-0.000162043609,-630.9941181136
1578503448.9861174,3.0020220279693604,-0.000160331838,-624.7797046752
1578503449.0347238,3.050628423690796,-0.000158980489,-619.8737672656
1578503449.0818903,3.097795009613037,-0.000162834302,-633.8646499808
1578503449.1304896,3.1463942527770996,-0.000157693401,-615.2011229904
1578503449.178643,3.194547653198242,-0.000162285753,-631.8731976912
1578503449.226291,3.2421956062316895,-0.000160274096,-624.5700781184
1578503449.2743037,3.290208339691162,-0.000158971176,-619.8399573504
1578503449.3225424,3.338447093963623,-0.000162817538,-633.8037899551999
1578503449.3707643,3.3866689205169678,-0.000157654285,-615.059116264
1578503449.418613,3.4345176219940186,-0.00016231183,-631.967867632
1578503449.4668276,3.4827322959899902,-0.000160220079,-624.3739748016
1578503449.514053,3.5299577713012695,-0.000158987008,-619.8974338432
1578503449.5626223,3.5785269737243652,-0.0001628967,-634.09117968
1578503449.610003,3.6259076595306396,-0.000157607719,-614.8900630576001
1578503449.6584873,3.674391984939575,-0.000162401237,-632.2924508048001
1578503449.706236,3.7221405506134033,-0.000202662311,-778.4562538544
1578503449.754757,3.7706615924835205,-0.000316506252,-1191.7552972608
1578503449.8026888,3.8185935020446777,-0.000407730229,-1522.9348233616
1578503449.8500073,3.8659119606018066,-0.000476215966,-1771.5654429664
1578503449.8980772,3.9139819145202637,-0.000549905933,-2039.0894991632001
1578503449.9460626,3.9619672298431396,-0.000589234754,-2181.8688509216
1578503449.9944105,4.010315179824829,-0.000581418164,-2153.4915025856
1578503450.0424242,4.058328866958618,-0.000581700355,-2154.5159687919995
1578503450.0907257,4.106630325317383,-0.000574734993,-2129.2289185871996
1578503450.138151,4.154055595397949,-0.000578531064,-2143.0101747456
1578503450.186168,4.202072620391846,-0.000575309619,-2131.3150408175998
1578503450.2340055,4.249910116195679,-0.000573817641,-2125.8985638864
1578503450.2822876,4.298192262649536,-0.00057696458,-2137.3232112319997
1578503450.3307495,4.346654176712036,-0.000571385957,-2117.0705782928
1578503450.3781722,4.394076824188232,-0.000575861894,-2133.3200199775997
1578503450.426627,4.442531585693359,-0.000573094934,-2123.2748483935998
1578503450.4738483,4.489753007888794,-0.000572104938,-2119.6807669152
1578503450.5225937,4.538498401641846,-0.000575284474,-2131.2237544095997
1578503450.569781,4.585685729980469,-0.0005700076,-2112.06659104
1578503450.6187258,4.634630441665649,-0.000572939403,-2122.7102086511995
1578503450.6665244,4.682429075241089,-0.000572358258,-2120.6004198431997
1578503450.7142515,4.730156183242798,-0.000571949407,-2119.1161271727997
1578503450.7626996,4.77860426902771,-0.000572576188,-2121.3915929152
1578503450.8106658,4.826570510864258,-0.000571360812,-2116.9792918847997
1578503450.8587363,4.874640941619873,-0.000572241843,-2120.1777868271997
1578503450.9059386,4.9218432903289795,-0.000571618788,-2117.9158479551998
1578503450.9547448,4.970649480819702,-0.000571348704,-2116.9353350015995
1578503451.002213,5.018117666244507,-0.000571974553,-2119.2074172111998
1578503451.0501983,5.066102981567383,-0.000568542629,-2106.7481603215997
1578503451.0978286,5.113733291625977,-0.000573491678,-2124.7151878111995
1578503451.1465979,5.1625025272369385,-0.000570618547,-2114.2845730288
1578503451.1940005,5.20990514755249,-0.00057009235,-2112.37426744
1578503451.2421827,5.258087396621704,-0.00057338085,-2124.3128378399997
1578503451.2903657,5.306270360946655,-0.000568178482,-2105.4261610528
1578503451.3382976,5.3542022705078125,-0.000573116355,-2123.352615192
1578503451.3867102,5.4026148319244385,-0.000570208766,-2112.7969040863995
1578503451.4340723,5.449976921081543,-0.000569811091,-2111.3531847664
1578503451.4824796,5.498384237289429,-0.000572988763,-2122.8894051951997
1578503451.5303936,5.546298265457153,-0.000567784533,-2103.9959686032
1578503451.578745,5.59464955329895,-0.000572843477,-2122.3619589008
1578503451.6259027,5.641807317733765,-0.00056988094,-2111.6067645759995
1578503451.6746562,5.690560817718506,-0.000569524243,-2110.3118117871995
1578503451.722208,5.738112688064575,-0.00057274662,-2122.010329248
1578503451.7705672,5.786471843719482,-0.000567558222,-2103.1743691488
1578503451.8187118,5.834616422653198,-0.000572799705,-2122.203049032
1578503451.8662624,5.882167100906372,-0.000465543009,-1732.8183398735998
1578503451.9142025,5.930107116699219,-0.000262251124,-994.7874805696
1578503451.96238,5.978284597396851,-8.202903e-05,-340.50919051200003
1578503452.0106847,6.026589393615723,2.929382e-05,63.63728412799999
1578503452.0580747,6.073979377746582,0.000143388286,477.84583349440004
1578503452.1064813,6.1223859786987305,0.00027917698,970.813108192
1578503452.1541958,6.170100450515747,0.000394383445,1389.058658728
1578503452.202558,6.218462705612183,0.000496447086,1759.5905010144
1578503452.2507446,6.26664924621582,0.000601626001,2141.4320340304002
1578503452.297981,6.313885688781738,0.000697254203,2488.6006585712003
1578503452.3459587,6.361863374710083,0.000782376155,2797.6273931120004
1578503452.3942935,6.410198211669922,0.000797273591,2851.7110447664
1578503452.4432657,6.459170341491699,0.000791335478,2830.1533193312002
1578503452.4907422,6.5066468715667725,0.000794734806,2842.4942397024
1578503452.5379076,6.553812265396118,0.000788899139,2821.3084342256
1578503452.5861595,6.60206413269043,0.000791549683,2830.9309691632
1578503452.6342065,6.650111198425293,0.000790622085,2827.5634173840003
1578503452.6820383,6.6979429721832275,0.000787587836,2816.5478798144
1578503452.7307367,6.746641397476196,0.000792064704,2832.8007014016002
1578503452.7780716,6.793976306915283,0.000786813907,2813.7382079728
1578503452.826624,6.842528581619263,0.000789986923,2825.2575252592
1578503452.8741717,6.890076398849487,0.000789240934,2822.5492867936005
1578503452.92247,6.938374757766724,0.00078794919,2817.859739376
1578503452.9701896,6.986094236373901,0.000788911246,2821.3523874784
1578503453.0183406,7.034245252609253,0.00078774523,2817.119282992
1578503453.0661438,7.082048416137695,0.000788243487,2818.9281552048
1578503453.1142142,7.1301188468933105,0.000788099132,2818.4040888128
1578503453.1617815,7.1776862144470215,0.000787361525,2815.72628036
1578503453.2108455,7.226750135421753,0.000788222067,2818.8503920368003
1578503453.257899,7.2738037109375,0.000787045807,2814.5800977328004
1578503453.306442,7.3223466873168945,0.000787624158,2816.6797432032004
1578503453.354303,7.3702075481414795,0.00078930147,2822.7690566880005
1578503453.4025052,7.418409824371338,0.00078511145,2807.55760808
1578503453.45056,7.4664647579193115,0.000789871439,2824.8382721456005
1578503453.4987404,7.514645099639893,0.000784412958,2805.0218027232004
1578503453.5460334,7.561938047409058,0.000788187608,2818.7252920832
1578503453.5942974,7.610202074050903,0.00078730192,2815.5098903680005
1578503453.6425467,7.658451318740845,0.000784753822,2806.2592753888002
1578503453.6899972,7.705901861190796,0.000789457932,2823.3370763328003
1578503453.738029,7.753933668136597,0.00078409072,2803.8519498880005
1578503453.78631,7.802214622497559,0.000787969679,2817.9341226416004
1578503453.834528,7.850432634353638,0.00078691449,2814.1033644960003
1578503453.8819666,7.897871255874634,0.000784471631,2805.2348091824
1578503453.9300046,7.945909261703491,0.00078916084,2822.2585135360005
1578503453.9783368,7.99424147605896,0.000783784315,2802.7395771760002
1578503454.0262737,8.042178392410278,0.000787740573,2817.1023762192003
1578503454.0741265,8.090031147003174,0.000786657445,2813.170188328
1578503454.1224453,8.138350009918213,0.000784332864,2804.7310294656004
1578503454.1703138,8.186218500137329,0.000777305104,2779.2174495616
1578503454.2183032,8.23420786857605,0.000582909212,2073.4826032448
1578503454.2664144,8.282319068908691,0.000370044261,1300.6976851344
1578503454.314725,8.330629587173462,0.000174467452,590.6756377408
1578503454.3622,8.37810468673706,2.359692e-05,42.955258368
1578503454.4102962,8.426200866699219,-7.6237135e-05,-319.482294904
1578503454.4585042,8.474408864974976,-0.000199700706,-767.7044430624001
1578503454.5064783,8.522382974624634,-0.000237877481,-906.3014070224
1578503454.5546787,8.57058334350586,-0.000234417617,-893.7407167568
1578503454.602687,8.618591547012329,-0.000233623199,-890.8566616495999
1578503454.649963,8.665867567062378,-0.000232057646,-885.1730780384
1578503454.6987221,8.714626789093018,-0.000232596882,-887.1307204128001
1578503454.7466016,8.762506246566772,-0.000231484883,-883.0937192432
1578503454.7938178,8.809722423553467,-0.000231390819,-882.7522292976
1578503454.8422775,8.858182191848755,-0.000231624581,-883.6008788624
1578503454.8903284,8.906233072280884,-0.000230507925,-879.54697092
1578503454.938392,8.954296588897705,-0.000231412239,-882.8299924656001
1578503454.9866042,9.002508878707886,-0.000229066238,-874.3130704352
1578503455.0340743,9.049978971481323,-0.000230542384,-879.6720708736001
1578503455.0824757,9.098380327224731,-0.000232327729,-886.1535873616
1578503455.1300714,9.145976066589355,-0.000227806158,-869.7384760032
1578503455.1787164,9.194621086120605,-0.00023310259,-888.966642736
1578503455.2258368,9.241741418838501,-0.000228509307,-872.2911881328
1578503455.2741208,9.290025472640991,-0.000230100937,-878.0694416848
1578503455.322098,9.338002681732178,-0.000231725164,-883.9660353856
1578503455.3697603,9.385664939880371,-0.000227414072,-868.3150469888001
1578503455.4180424,9.433947086334229,-0.000232666731,-887.3843002224
1578503455.4661036,9.482008218765259,-0.000228120014,-870.8778988256
1578503455.5140839,9.529988527297974,-0.000229815021,-877.0314522384
1578503455.5626132,9.57851791381836,-0.000231421553,-882.8638060112
1578503455.609952,9.625856637954712,-0.000227164477,-867.4089173008
1578503455.6580482,9.67395281791687,-0.000180163421,-696.7762835984
1578503455.7062976,9.72220230102539,-1.8118881e-05,-108.4897855824
1578503455.753882,9.769786596298218,0.00010181684,326.924855936
1578503455.8057342,9.821638822555542,0.000266849995,926.061221848
1578503455.8507214,9.866626024246216,0.000425549224,1502.2029028096
1578503455.8981314,9.91403603553772,0.000559153967,1987.2415617968
1578503455.9467258,9.9626305103302,0.000691680238,2468.3649360352
1578503455.9938502,10.00975489616394,0.000791075639,2829.2099998256
1578503456.0421078,10.05801248550415,0.000807771459,2889.8225047536002
1578503456.090224,10.106128692626953,0.000809224322,2895.0969785888
1578503456.1384914,10.154396057128906,0.000802875496,2872.0482006784
1578503456.1862745,10.202179193496704,0.000806799158,2886.2926632032004
1578503456.2345324,10.250437021255493,0.000804066658,2876.3725952032
1578503456.2826355,10.298540115356445,0.000802562572,2870.9121613888005
1578503456.330743,10.3466477394104,0.000806057826,2883.6013315104
1578503456.378711,10.394615650177002,0.000800656155,2863.9911051120002
1578503456.426081,10.441985607147217,0.000805036165,2879.892293416
1578503456.4741673,10.490072011947632,0.000802673399,2871.3145077296003
1578503456.5223644,10.53826904296875,0.000802422874,2870.4050017696
1578503456.5705838,10.586488485336304,0.000803073868,2872.7683703872
1578503456.6185813,10.634485960006714,0.000801806338,2868.1667294752
1578503456.6666286,10.682533264160156,0.000802583061,2870.9865446544004
1578503456.7138972,10.729801893234253,0.000802077353,2869.1506223312003
1578503456.7619982,10.777902841567993,0.000801714137,2867.8320029648003
1578503456.809973,10.825877666473389,0.000802410766,2870.3610448864
1578503456.8578124,10.873717069625854,0.000801207498,2865.9927007392002
1578503456.9066875,10.922592163085938,0.000803686678,2874.9931158112
1578503456.9547086,10.970613241195679,0.000801204704,2865.9825574016004
1578503457.002375,11.018279552459717,0.000800373033,2862.9632590032
1578503457.0505385,11.06644320487976,0.000803803094,2875.4157524576003
1578503457.098133,11.11403775215149,0.00079860352,2856.539219008
1578503457.146668,11.162572622299194,0.000803404488,2873.9686532352002
1578503457.1946483,11.21055293083191,0.000800740905,2864.2987815120005
1578503457.2419705,11.257875204086304,0.000800083391,2861.9117426864004
1578503457.2904353,11.306339979171753,0.000803457573,2874.1613730192003
1578503457.3387058,11.354610443115234,0.000798230991,2855.1867897264
1578503457.3861032,11.402007818222046,0.00080317352,2873.130147008
1578503457.4339862,11.449890851974487,0.000800426118,2863.1559787872
1578503457.4826584,11.498563051223755,0.000799814239,2860.9346132656
1578503457.530709,11.546613693237305,0.000803184696,2873.1707203584
1578503457.5787795,11.59468412399292,0.000797967426,2854.2299433504004
1578503457.6267004,11.642605066299438,0.000801815651,2868.2005393904
1578503457.6746888,11.690593481063843,0.000634709373,2261.5379077392004
1578503457.7224586,11.738363265991211,0.000412565656,1455.0673575424
1578503457.7698762,11.785780906677246,0.000216659158,743.8484072032
1578503457.8186598,11.834564447402954,4.7226436e-05,128.73985325439997
1578503457.8660343,11.881938934326172,-4.9099326e-05,-220.96119311039996
1578503457.9140573,11.929961919784546,-0.000185086392,-714.6486375168
1578503457.9623046,11.978209257125854,-0.000302071683,-1139.3520379632
1578503458.010245,12.02614974975586,-0.000326209702,-1226.9827021408
1578503458.0580828,12.073987483978271,-0.000323126093,-1215.7879680272
1578503458.1059053,12.121809959411621,-0.000320713036,-1207.0276058944
1578503458.1547012,12.170605897903442,-0.000320438296,-1206.0301897984
1578503458.202297,12.218201637268066,-0.000319908373,-1204.1063573392
1578503458.2503877,12.266292333602905,-0.000318841077,-1200.2316459408
1578503458.2980342,12.313938856124878,-0.000319498591,-1202.6186847664
1578503458.3462055,12.362110137939453,-0.000318284146,-1198.2097636384
1578503458.393917,12.40982174873352,-0.000318606384,-1199.3796164736
1578503458.443087,12.458991765975952,-0.000318459235,-1198.845406744
1578503458.4898221,12.50572681427002,-0.00031758938,-1195.6874851520001
1578503458.538244,12.55414867401123,-0.000318503939,-1199.0077001456002
1578503458.586711,12.602615594863892,-0.000317342579,-1194.7914988016
1578503458.6341856,12.650090217590332,-0.000318573788,-1199.2612799552
1578503458.6827078,12.698612451553345,-0.000318226404,-1198.0001370816
1578503458.730696,12.74660062789917,-0.000315181911,-1186.9474096944
1578503458.7780802,12.79398488998413,-0.000320117921,-1204.8671003984
1578503458.8260643,12.841969013214111,-0.000314703211,-1185.2095372144001
1578503458.8741395,12.890044212341309,-0.00031811744,-1197.604554176
1578503458.9224749,12.938379526138306,-0.000317599624,-1195.7246749696
1578503458.9703906,12.986295223236084,-0.000314744189,-1185.3583037456
1578503459.018587,13.034491777420044,-0.000319714658,-1203.4030944032
1578503459.0666375,13.082542181015015,-0.000314316712,-1183.8063912448001
1578503459.1143336,13.13023829460144,-0.000317832455,-1196.569944632
1578503459.161988,13.177892684936523,-0.000317253172,-1194.4669156288
1578503459.2100885,13.225993156433105,-0.000314457342,-1184.3169343968
1578503459.2583334,13.274238109588623,-0.000293534249,-1108.3577375696
1578503459.306543,13.322447776794434,-0.000109270215,-439.405588536
1578503459.3540268,13.36993145942688,1.634378e-05,16.623458911999997
1578503459.4023552,13.418259859085083,0.000156202354,524.3660259616
1578503459.4505174,13.466422080993652,0.000316895545,1107.746586568
1578503459.4985857,13.514490365982056,0.000456954353,1616.2160831311999
1578503459.5464923,13.562397003173828,0.000585389324,2082.4864018496
1578503459.5938988,13.609803438186646,0.000607059337,2161.1572170448003
1578503459.642009,13.65791368484497,0.000606112182,2157.7186655328005
1578503459.6903923,13.706296920776367,0.000605813228,2156.6333429312003
1578503459.7382338,13.754138469696045,0.00060424488,2150.9396123520005
