Time, Time Since Begin, V/V Raw Data, Force 
1578502917.5975947,0.24025845527648926,-0.000326433219,-1227.7941582576
1578502917.6375542,0.28021788597106934,-0.000327197835,-1230.570020184
1578502917.6777105,0.3203742504119873,-0.000328711234,-1236.0642639136001
1578502917.717584,0.3602476119995117,-0.000330322422,-1241.9135208288
1578502917.7655845,0.4082481861114502,-0.000331290066,-1245.4264556064
1578502917.805273,0.4479367733001709,-0.000330997631,-1244.3647995824
1578502917.8454814,0.488145112991333,-0.000330139883,-1241.2508312432
1578502917.8858829,0.5285465717315674,-0.000328633003,-1235.7802540912
1578502917.9331925,0.5758562088012695,-0.000326992944,-1229.8261838976
1578502917.973333,0.6159965991973877,-0.000326161273,-1226.8068854992
1578502918.0134382,0.6561019420623779,-0.000326491892,-1228.0071647168
1578502918.0618773,0.7045409679412842,-0.000327381305,-1231.236089672
1578502918.101401,0.7440648078918457,-0.000328815542,-1236.4429436768
1578502918.1417263,0.7843899726867676,-0.000330414623,-1242.2482473392001
1578502918.1818902,0.8245539665222168,-0.000331272371,-1245.3622156784
1578502918.229534,0.8721976280212402,-0.00033085607,-1243.850876528
1578502918.2697725,0.9124362468719482,-0.000329903327,-1240.3920383408
1578502918.309722,0.952385663986206,-0.000328481197,-1235.2291375888
1578502918.350025,0.9926886558532715,-0.000326841138,-1229.2750673952
1578502918.3970184,1.039682149887085,-0.000326089561,-1226.5465422544
1578502918.4378505,1.0805141925811768,-0.000326472335,-1227.936164984
1578502918.477827,1.1204907894134521,-0.000327574089,-1231.9359727056
1578502918.5168633,1.159527063369751,-0.000328917988,-1236.8148636352
1578502918.5655227,1.208186388015747,-0.000330505893,-1242.5795939472
1578502918.605521,1.2481846809387207,-0.000331204385,-1245.115399304
1578502918.645477,1.2881407737731934,-0.000330773182,-1243.5499599328
1578502918.6854544,1.328118085861206,-0.000329621136,-1239.3675721344
1578502918.733427,1.3760907649993896,-0.000328255817,-1234.4109180368
1578502918.7733545,1.4160182476043701,-0.000326677226,-1228.6800012704
1578502918.813351,1.456014633178711,-0.000326108187,-1226.6141620848
1578502918.8533287,1.4959924221038818,-0.000326496549,-1228.0240714896
1578502918.901303,1.5439667701721191,-0.000327722169,-1232.4735623376
1578502918.9412794,1.5839431285858154,-0.000329037197,-1237.2476399888
1578502918.9812567,1.6239204406738281,-0.000330612995,-1242.968417048
1578502919.0212343,1.66389799118042,-0.000331115909,-1244.7941960336
1578502919.0692065,1.7118701934814453,-0.000330748037,-1243.4586735248001
1578502919.1091824,1.7518460750579834,-0.000326217152,-1227.0097486208
1578502919.1574557,1.800119400024414,-0.000329955481,-1240.5813782224002
1578502919.205467,1.848130702972412,-0.000328741036,-1236.1724570944
1578502919.2535434,1.8962070941925049,-0.000326862559,-1229.3528341936
1578502919.3009355,1.9435992240905762,-0.00033094082,-1244.1585529279998
1578502919.34979,1.9924538135528564,-0.000326160342,-1226.8035055968
1578502919.3978806,2.040544271469116,-0.000329971313,-1240.6388547152
1578502919.4454036,2.0880672931671143,-0.000328760594,-1236.2434604576001
1578502919.493381,2.13604474067688,-0.0003267508,-1228.94710432
1578502919.5415123,2.184175968170166,-0.000330859795,-1243.8643997679999
1578502919.5893788,2.2320425510406494,-0.000325920992,-1225.9345693568
1578502919.6379137,2.2805774211883545,-0.000330137089,-1241.2406879056
1578502919.685295,2.327958822250366,-0.000328664668,-1235.8952107072
1578502919.7337976,2.3764612674713135,-0.000326892361,-1229.4610273744
1578502919.7818336,2.424497365951538,-0.000331108458,-1244.7671459232
1578502919.8292413,2.471904993057251,-0.000325833447,-1225.6167459888
1578502919.8777938,2.5204575061798096,-0.000328726135,-1236.118360504
1578502919.9258325,2.5684962272644043,-0.00032860972,-1235.695727488
1578502919.9728932,2.6155569553375244,-0.000328248367,-1234.3838715568
1578502920.0219362,2.664599895477295,-0.000329089351,-1237.4369798704001
1578502920.0691469,2.71181058883667,-0.000328012742,-1233.5284585568
1578502920.1176453,2.7603089809417725,-0.000328910537,-1236.7878135248
1578502920.1658323,2.8084959983825684,-0.000328579918,-1235.5875343072
1578502920.2137058,2.8563694953918457,-0.000328225084,-1234.2993449536
1578502920.261877,2.904540777206421,-0.000329080969,-1237.4065498576
1578502920.3091044,2.951768159866333,-0.000327995047,-1233.4642186288002
1578502920.357732,3.0003957748413086,-0.000328845344,-1236.5511368576
1578502920.4058297,3.0484933853149414,-0.000328542665,-1235.4522910160001
1578502920.4537747,3.096438407897949,-0.000328217633,-1234.2722948432001
1578502920.5018797,3.144543409347534,-0.00032903254,-1237.230733216
1578502920.5491605,3.191824197769165,-0.000325726345,-1225.227922888
1578502920.5970614,3.239725112915039,-0.000330642797,-1243.0766102288
1578502920.6454942,3.2881579399108887,-0.000328218564,-1234.2756747455999
1578502920.6937916,3.3364553451538086,-0.000327312388,-1230.9858933952
1578502920.7417126,3.384376287460327,-0.000330992974,-1244.3478928096001
1578502920.789648,3.432311773300171,-0.000325685367,-1225.0791563568
1578502920.8375208,3.480184555053711,-0.00033064466,-1243.0833736640002
1578502920.8858476,3.5285112857818604,-0.000328126363,-1233.9409482352
1578502920.9337635,3.5764272212982178,-0.000327380374,-1231.2327097696002
1578502920.9813666,3.624030351638794,-0.000330896117,-1243.9962631567998
1578502921.0293083,3.6719720363616943,-0.000325728208,-1225.2346863232
1578502921.07787,3.720533609390259,-0.000330653042,-1243.1138036768
1578502921.1251612,3.76782488822937,-0.000328048132,-1233.6569384128002
1578502921.1735923,3.816256046295166,-0.000327488407,-1231.6249127728001
1578502921.2214756,3.8641393184661865,-0.000330804847,-1243.6649165488
1578502921.2694201,3.912083864212036,-0.000325764529,-1225.3665460815998
1578502921.3173983,3.960062026977539,-0.000330712646,-1243.3301900384001
1578502921.3656628,4.008326530456543,-0.00032791961,-1233.190352144
1578502921.413597,4.056260824203491,-0.000327656977,-1232.2368893008
1578502921.4610395,4.103703260421753,-0.000330784358,-1243.5905332832
1578502921.5172791,4.159942865371704,-0.000325817615,-1225.5592694959998
1578502921.5653813,4.20804500579834,-0.000279079191,-1055.8800950063999
1578502921.6131237,4.255787372589111,-0.000132112764,-522.3331784256
1578502921.6618664,4.304530143737793,-2.2493303e-05,-124.37068721119999
1578502921.7091405,4.351804256439209,4.9492344e-05,136.96600565760002
1578502921.757681,4.400344610214233,0.000162771903,548.2161166512
1578502921.8058362,4.448499917984009,0.000266644172,925.3140020287999
1578502921.853437,4.496100664138794,0.000371167436,1304.7752596543999
1578502921.9016378,4.544301509857178,0.000462178141,1635.1805230864002
1578502921.949497,4.592160701751709,0.000542020425,1925.03995092
1578502921.9973526,4.640016317367554,0.000621194951,2212.4751501104
1578502922.0453277,4.687991380691528,0.000681991689,2433.1916277456003
1578502922.0933168,4.73598051071167,0.000720364042,2572.4986180768
1578502922.1412895,4.7839531898498535,0.000719013624,2567.5960605696005
1578502922.1892462,4.831909894943237,0.000714844093,2552.4589952272004
1578502922.2382157,4.8808794021606445,0.000718628056,2566.1962945024
1578502922.2861888,4.928852558135986,0.000713199377,2546.4880182608003
1578502922.3331606,4.975824356079102,0.000716073439,2556.9220129456003
1578502922.3811362,5.023799896240234,0.000715168193,2553.6356078672
1578502922.4291258,5.071789503097534,0.000712374225,2543.4923864400002
1578502922.4770787,5.119742393493652,0.000716753304,2559.3901948416
1578502922.5250545,5.167718172073364,0.000711623579,2540.7672412016
1578502922.5730276,5.215691328048706,0.000714859925,2552.51647172
1578502922.6209579,5.26362156867981,0.00071402546,2549.487029984
1578502922.6691563,5.311820030212402,0.000711448491,2540.1316017264003
1578502922.7175944,5.360258102416992,0.000715907663,2556.3201797552
1578502922.7658565,5.408520221710205,0.000712792389,2545.0104890256002
1578502922.8135824,5.4562461376190186,0.000713329762,2546.9613679648
1578502922.8617806,5.504444360733032,0.000713154674,2546.3257284896004
1578502922.909294,5.551957607269287,0.000712478533,2543.8710662032004
1578502922.9575555,5.600219249725342,0.000713382848,2547.1540913792
1578502923.0054271,5.648090839385986,0.000712301582,2543.2286632928003
1578502923.0533998,5.69606351852417,0.000712896697,2545.3891687888004
1578502923.101355,5.744018793106079,0.000712668523,2544.5608058992
1578502923.1493456,5.792009353637695,0.000712087378,2542.4510170912004
1578502923.1972988,5.839962482452393,0.000712950714,2545.5852721056003
1578502923.245272,5.887935638427734,0.000711883418,2541.7105607072003
1578502923.29314,5.935803651809692,0.000712523237,2544.0333596048004
1578502923.3411126,5.983776330947876,0.000712336041,2543.3537632464004
1578502923.3890867,6.031750440597534,0.000710183755,2535.5401041520004
1578502923.437058,6.079721689224243,0.000714709982,2551.9721186528
1578502923.4850311,6.127694845199585,0.000709426589,2532.7912887056004
1578502923.5330045,6.175668239593506,0.000713424757,2547.3062378128
1578502923.5810587,6.223722457885742,0.000712228939,2542.9649401456004
1578502923.629792,6.27245569229126,0.000709999353,2534.8706511312002
1578502923.6769006,6.319564342498779,0.000714441761,2550.9983691344
1578502923.7251031,6.367766857147217,0.000709202141,2531.9764526864
1578502923.773639,6.416302680969238,0.000713251531,2546.6773581424
1578502923.821406,6.464069604873657,0.000711907633,2541.7984708432
1578502923.8691316,6.511795282363892,0.000709861517,2534.3702513168
1578502923.917948,6.560611724853516,0.000714221969,2550.2004362576004
1578502923.9654922,6.608155965805054,0.000708918087,2530.9452230448
1578502924.0136323,6.656296014785767,0.000713160262,2546.3460151648005
1578502924.061855,6.704518795013428,0.000711643137,2540.8382445648003
1578502924.1097274,6.75239109992981,0.000709776767,2534.0625749168003
1578502924.1578586,6.800522327423096,0.000714043155,2549.551269912
1578502924.2056036,6.848267316818237,0.000708792359,2530.4887801136
1578502924.2538753,6.896538972854614,0.000713069923,2546.0180484592
1578502924.301749,6.944412708282471,0.000711415894,2540.0132615776
1578502924.3491268,6.991790533065796,0.000684431754,2442.0500397216
1578502924.397817,7.040480613708496,0.000530007295,1881.427483768
1578502924.4458845,7.088548183441162,0.000366333872,1287.2274889087998
1578502924.4931223,7.135786056518555,0.000221486203,761.3725113712
1578502924.5413601,7.184023857116699,9.0707093e-05,286.59203042720003
1578502924.5896223,7.232285976409912,5.592592e-06,-22.407654003199998
1578502924.637832,7.280495643615723,-6.9380738e-05,-294.59083123519997
1578502924.6849716,7.327635288238525,-0.000174702145,-676.949667208
1578502924.7332578,7.3759214878082275,-0.000259852037,-986.0778351248
1578502924.781418,7.424081802368164,-0.000342908315,-1287.605346776
1578502924.8297431,7.47240686416626,-0.000408272259,-1524.9026090736
1578502924.877078,7.519741773605347,-0.000450932421,-1679.7760611984002
1578502924.9258502,7.568513870239258,-0.000481995754,-1792.5483853216
1578502924.9737961,7.616459846496582,-0.000472903252,-1759.5389660608
1578502925.0212276,7.663891315460205,-0.000471194275,-1753.33469596
1578502925.0691597,7.711823463439941,-0.000470460393,-1750.6704107472
1578502925.117355,7.760018825531006,-0.000468826853,-1744.7400071312
1578502925.165783,7.808446645736694,-0.000469340011,-1746.6029759344
1578502925.2138138,7.856477499008179,-0.000467983074,-1741.6767518496001
1578502925.2610898,7.9037535190582275,-0.000467965379,-1741.6125119216
1578502925.3092713,7.951935052871704,-0.00046799425,-1741.7173252
1578502925.3577232,8.000386953353882,-0.000466840342,-1737.5281775967999
1578502925.4056852,8.048348903656006,-0.000467699021,-1740.6455258384
1578502925.4531872,8.095850944519043,-0.000466583297,-1736.5950014288
1578502925.501471,8.144134759902954,-0.000466741621,-1737.1697808784002
1578502925.549719,8.1923828125,-0.000466844998,-1737.5450807391999
1578502925.59768,8.240343809127808,-0.000465903431,-1734.1268159024
1578502925.6458058,8.288469552993774,-0.000466866419,-1737.6228475376
1578502925.6937017,8.336365461349487,-0.000465741381,-1733.5385095824
1578502925.7418444,8.38450813293457,-0.000466083176,-1734.7793621504
1578502925.789342,8.432005643844604,-0.000466224737,-1735.2932852048
1578502925.8378534,8.480517148971558,-0.000465299934,-1731.9358803936002
1578502925.8855433,8.528207063674927,-0.000468559563,-1743.7696375152
1578502925.9338992,8.576562881469727,-0.000463500619,-1725.4036472176
1578502925.981062,8.623725652694702,-0.000465885736,-1734.0625759744
1578502926.029118,8.671781778335571,-0.000466664322,-1736.8891545888
1578502926.0775783,8.720242023468018,-0.000462922268,-1723.3040017472001
1578502926.125459,8.768122673034668,-0.000468147919,-1742.2752051375999
1578502926.1736796,8.816343307495117,-0.000463075005,-1723.858498152
1578502926.2213798,8.864043474197388,-0.000465597957,-1733.0178230928
1578502926.2697911,8.912454843521118,-0.000466223806,-1735.2899053024
1578502926.3177636,8.960427284240723,-0.000462592579,-1722.1070988016002
1578502926.3657732,9.008436918258667,-0.000467791222,-1740.9802523488
1578502926.4138694,9.056533098220825,-0.000462767668,-1722.7427419071998
1578502926.4613247,9.103988409042358,-0.000465338118,-1732.0745035872
1578502926.5095434,9.152207136154175,-0.000465124846,-1731.3002409184
1578502926.5578444,9.200508117675781,-0.000341215171,-1281.4585567984
1578502926.6059096,9.248573303222656,-0.000198776834,-764.3504181536
1578502926.6538458,9.296509504318237,-6.4772554e-05,-277.8612800416
1578502926.7014413,9.344105005264282,1.0802411e-05,-3.493927105600001
1578502926.7492077,9.391871452331543,9.1540627e-05,289.6180922608
1578502926.7973115,9.439975261688232,0.000195970759,668.7412434736
1578502926.845088,9.487751722335815,0.00029012654,1010.564390816
1578502926.8936076,9.536271333694458,0.000387786888,1365.1105181952
1578502926.9418385,9.584502220153809,0.000463301316,1639.2580976064
1578502926.989069,9.631732702255249,0.000532492995,1890.451569048
1578502927.0374,9.680063724517822,0.000601564534,2141.2088842336
1578502927.085429,9.728092670440674,0.000657419674,2343.9853844896
1578502927.1338503,9.776514053344727,0.000709506683,2533.0820619632004
1578502927.1818178,9.82448148727417,0.00071310997,2546.1634350880004
1578502927.2293272,9.87199091911316,0.000710739754,2537.5586029216
1578502927.277326,9.919989824295044,0.000712648034,2544.4864226336003
1578502927.325278,9.967941761016846,0.000706885941,2523.5677202064003
1578502927.3731906,10.015854358673096,0.000711369328,2539.8442083712002
1578502927.4212883,10.063951969146729,0.000707906671,2527.2733783984004
1578502927.4694266,10.112090349197388,0.000707739033,2526.6647854032
1578502927.5178378,10.160501480102539,0.000710410997,2536.3650835088
1578502927.5658305,10.208494186401367,0.000705239363,2517.5899834352003
1578502927.6138353,10.25649905204773,0.000709977001,2534.7895044304
1578502927.6614428,10.30410647392273,0.000706642866,2522.6852607264
1578502927.70948,10.35214376449585,0.00070675835,2523.1045138400004
1578502927.7576878,10.400351524353027,0.000709394924,2532.6763320896002
1578502927.8057911,10.448454856872559,0.000706472434,2522.0665243936
1578502927.854318,10.496981620788574,0.000707410276,2525.4712659904003
1578502927.901835,10.544498682022095,0.000706634484,2522.6548307136
1578502927.9495015,10.592165231704712,0.000706572086,2522.4283010144004
1578502927.9973361,10.639999866485596,0.00070713181,2524.460323024
1578502928.0458338,10.688497543334961,0.000705952756,2520.1798853824002
1578502928.0938475,10.73651123046875,0.000706978142,2523.9024467168
1578502928.1411188,10.783782482147217,0.000706247985,2521.251684744
1578502928.1896274,10.83229112625122,0.000706152059,2520.9034349936
1578502928.2373621,10.880025863647461,0.000706719235,2522.962510744
1578502928.2856402,10.928303956985474,0.000705610961,2518.9390328144004
1578502928.3338602,10.976523876190186,0.000706546009,2522.3336310736004
1578502928.3818276,11.024491310119629,0.000705897808,2519.9804021632
1578502928.429834,11.072497606277466,0.000705843791,2519.7842988464004
1578502928.4770474,11.11971116065979,0.000708112493,2528.0205945872003
1578502928.5256443,11.168308019638062,0.000703217462,2510.2496740448
1578502928.5734518,11.216115474700928,0.000708371401,2528.9605341904003
1578502928.6217215,11.264385223388672,0.000704724342,2515.7202511968003
1578502928.6688454,11.311509132385254,0.000705267303,2517.6914168112003
1578502928.7173076,11.359971284866333,0.000707857311,2527.0941818544006
1578502928.765042,11.407705783843994,0.000702993013,2509.4348343952
1578502928.8137398,11.456403493881226,0.000708132051,2528.0915979504002
1578502928.8617842,11.504447937011719,0.000704474747,2514.8141215088003
1578502928.90912,11.551783800125122,0.000705095008,2517.0659170432
1578502928.9572825,11.59994626045227,0.000707612373,2526.2049589392
1578502929.0052946,11.647958278656006,0.000702846795,2508.9040045680003
1578502929.0534866,11.696150302886963,0.000707997009,2527.6013414736003
1578502929.1016567,11.744320392608643,0.000704212114,2513.8606586656006
1578502929.149399,11.792062759399414,0.000705019571,2516.7920505584
1578502929.2013507,11.844014406204224,0.000707400963,2525.4374560752003
1578502929.2458234,11.888487100601196,0.000702686608,2508.3224616832
1578502929.293702,11.936365604400635,0.000707873143,2527.1516583472003
1578502929.3418615,11.984525203704834,0.000703991391,2513.0593458864005
1578502929.3891776,12.031841278076172,0.000704921782,2516.4370373728
1578502929.437572,12.080235719680786,0.000705711544,2519.3041893376003
1578502929.485685,12.12834882736206,0.000566334464,2013.3096381056
1578502929.533061,12.175724744796753,0.000410774723,1448.5655543792
1578502929.5812438,12.223907470703125,0.000254681334,881.8841149536
1578502929.6297252,12.272388935089111,0.000119993463,392.9132680752
1578502929.677395,12.320058822631836,2.4476089e-05,46.14699350560001
1578502929.725649,12.36831283569336,-5.0924718e-05,-227.58809622719997
1578502929.773262,12.415925741195679,-0.000143930316,-565.2356192064
1578502929.8216193,12.464282989501953,-0.000241670758,-920.0725198432
1578502929.8690002,12.511663913726807,-0.000322705135,-1214.259722104
1578502929.91782,12.560483694076538,-0.000382046215,-1429.691578936
1578502929.9648829,12.60754656791687,-0.000439676456,-1638.9124058624
1578502930.0134013,12.656064987182617,-0.000482142903,-1793.0825950512
1578502930.0618632,12.704526901245117,-0.000507852063,-1886.4171295152
1578502930.1091003,12.751764059066772,-0.000501763076,-1864.3116711104
1578502930.1571062,12.799769878387451,-0.000499575399,-1856.3695285295998
1578502930.2057414,12.848405122756958,-0.000499468297,-1855.9807054287999
1578502930.2542815,12.896945238113403,-0.000497718342,-1849.6276687968
1578502930.3012903,12.94395399093628,-0.00049804803,-1850.8245681119997
1578502930.3493266,12.991990327835083,-0.000497438014,-1848.6099660255998
1578502930.3973827,13.040046453475952,-0.000496636145,-1845.698860808
1578502930.4457934,13.088457107543945,-0.000497261062,-1847.9675594848
1578502930.493776,13.136439800262451,-0.000495960005,-1843.244202152
1578502930.541824,13.18448781967163,-0.000497948378,-1850.4627914912
1578502930.5896785,13.23234224319458,-0.000496134162,-1843.8764617247998
1578502930.6371663,13.279829978942871,-0.000494096428,-1836.4786722112
1578502930.6852381,13.327901840209961,-0.000498211943,-1851.4196378671998
1578502930.7335522,13.376215934753418,-0.00049277395,-1831.6775480799997
1578502930.7818117,13.42447543144226,-0.000497075729,-1847.2947265616
1578502930.8297076,13.472371339797974,-0.000495315529,-1840.9044964816
1578502930.877279,13.51994276046753,-0.000493437983,-1834.0882534831999
1578502930.925014,13.567677736282349,-0.000497595407,-1849.1813655728
1578502930.9736052,13.616268873214722,-0.000492227264,-1829.6928592256
