Time, Time Since Begin, V/V Raw Data, Force 
1578502298.0871377,0.2799570560455322,-0.000334699638,-1257.8045657952
1578502298.1277862,0.3206055164337158,-0.000335224904,-1259.7114914816
1578502298.1757255,0.3685448169708252,-0.000336837023,-1265.5641282992
1578502298.2156763,0.4084956645965576,-0.000338259153,-1270.7270290512
1578502298.25505,0.44786930084228516,-0.000339494087,-1275.2103334448
1578502298.2950814,0.4879007339477539,-0.000339381397,-1274.8012236688
1578502298.3430521,0.5358715057373047,-0.000338871963,-1272.9517744752
1578502298.383176,0.5759954452514648,-0.000337220728,-1266.9571309312
1578502298.4233725,0.6161918640136719,-0.000335846096,-1261.9666669184
1578502298.4634917,0.65631103515625,-0.000334614888,-1257.4968893952
1578502298.5113564,0.7041757106781006,-0.000334726647,-1257.9026192688
1578502298.5516884,0.7445077896118164,-0.000335213728,-1259.6709181312
1578502298.591044,0.7838633060455322,-0.000336892903,-1265.7669950512
1578502298.6311915,0.8240108489990234,-0.000338278711,-1270.7980324144
1578502298.6792402,0.8720595836639404,-0.000339478254,-1275.1528533216
1578502298.7197819,0.9126012325286865,-0.00033932738,-1274.605120352
1578502298.7597003,0.9525196552276611,-0.000338844024,-1272.8503447296
1578502298.7988343,0.9916536808013916,-0.000337203965,-1266.896274536
1578502298.8468096,1.0396289825439453,-0.000335756689,-1261.6420837456
1578502298.8867922,1.0796115398406982,-0.000334577635,-1257.3616461039999
1578502298.9267619,1.1195812225341797,-0.000334751792,-1257.9939056767998
1578502298.9677393,1.1605587005615234,-0.000335270539,-1259.8771647856
1578502299.0147133,1.2075326442718506,-0.000336891972,-1265.7636151488
1578502299.055394,1.248213291168213,-0.000338365324,-1271.1124722496
1578502299.0953524,1.2881717681884766,-0.000339474529,-1275.1393300815998
1578502299.1353297,1.3281490802764893,-0.000339321792,-1274.5848336768
1578502299.183303,1.3761224746704102,-0.000338807702,-1272.7184813408
1578502299.22328,1.4160993099212646,-0.000337183475,-1266.82188764
1578502299.2632573,1.4560766220092773,-0.000335684046,-1261.3783605984001
1578502299.3032348,1.4960541725158691,-0.000334520824,-1257.1553994496
1578502299.3532083,1.546027660369873,-0.000334710814,-1257.8451391456001
1578502299.3911855,1.5840048789978027,-0.000335321762,-1260.0631247648
1578502299.4311624,1.6239817142486572,-0.000336944126,-1265.9529550303998
1578502299.4711404,1.6639597415924072,-0.000338377431,-1271.1564255024
1578502299.5191536,1.711972951889038,-0.000339453109,-1275.0615669136
1578502299.5596557,1.7524750232696533,-0.000339346007,-1274.6727438128
1578502299.6073482,1.8001675605773926,-0.000334526412,-1257.1756861248
1578502299.65546,1.8482792377471924,-0.00033838395,-1271.18009208
1578502299.7037015,1.8965208530426025,-0.000337066129,-1266.3958747216
1578502299.7515423,1.944361686706543,-0.000335329212,-1260.0901712448
1578502299.799525,1.9923443794250488,-0.000339304097,-1274.5205937488001
1578502299.847273,2.0400924682617188,-0.000334546901,-1257.2500693904
1578502299.8954883,2.0883076190948486,-0.000338415615,-1271.2950486959999
1578502299.943702,2.136521339416504,-0.00033711642,-1266.578451168
1578502299.9909382,2.1837575435638428,-0.000335317105,-1260.0462179919998
1578502300.0391085,2.2319278717041016,-0.000339285471,-1274.4529739184
1578502300.086777,2.2795963287353516,-0.000334532931,-1257.1993527024
1578502300.135638,2.3284573554992676,-0.000338396057,-1271.2240453328002
1578502300.1831877,2.376007080078125,-0.000337036327,-1266.2876815408001
1578502300.2312644,2.424083709716797,-0.000335339457,-1260.1273646928
1578502300.2792478,2.47206711769104,-0.000339310616,-1274.5442603264
1578502300.327391,2.5202102661132812,-0.000334491953,-1257.0505861712
1578502300.3752708,2.5680902004241943,-0.000338405371,-1271.2578588784
1578502300.4236543,2.61647367477417,-0.000337051228,-1266.3417781312
1578502300.4716864,2.66450572013855,-0.000335386954,-1260.2997978016
1578502300.5196466,2.71246600151062,-0.000339259394,-1274.3583039776001
1578502300.5676086,2.760427951812744,-0.000334480777,-1257.0100128208
1578502300.615742,2.808561325073242,-0.000338499434,-1271.5993451936001
1578502300.6629245,2.855743885040283,-0.000336988829,-1266.1152448015998
1578502300.7110622,2.903881549835205,-0.000335399993,-1260.3471345872
1578502300.7597737,2.9525930881500244,-0.000339253806,-1274.3380173024
1578502300.8071675,2.9999868869781494,-0.000334501266,-1257.0843960864
1578502300.855848,3.0486674308776855,-0.000338474289,-1271.5080587856
1578502300.9036486,3.096467971801758,-0.000336988829,-1266.1152448015998
1578502300.951583,3.144402265548706,-0.000335473567,-1260.6142376368
1578502300.9990144,3.191833734512329,-0.000339233316,-1274.2636304064001
1578502301.0473335,3.2401528358459473,-0.000334485434,-1257.0269195936
1578502301.095617,3.2884364128112793,-0.000338546,-1271.7683984
1578502301.1438174,3.336636781692505,-0.000336979516,-1266.0814348864
1578502301.1910865,3.3839058876037598,-0.000335533172,-1260.8306276288001
1578502301.239734,3.432553291320801,-0.000339261256,-1274.3650637824
1578502301.2874043,3.4802236557006836,-0.000334632583,-1257.5611293232
1578502301.335086,3.5279054641723633,-0.000338596292,-1271.9509784768
1578502301.3837361,3.5765554904937744,-0.000337065198,-1266.3924948192
1578502301.4311347,3.6239540576934814,-0.000335729681,-1261.5440339023999
1578502301.4794853,3.672304630279541,-0.00033930596,-1274.527357184
1578502301.5277338,3.720553159713745,-0.000334709883,-1257.8417592432
1578502301.5757773,3.768596649169922,-0.000338746235,-1272.495331544
1578502301.6238477,3.816667079925537,-0.000337183475,-1266.82188764
1578502301.6717653,3.8645846843719482,-0.000335917808,-1262.2270101632
1578502301.7187393,3.9115586280822754,-0.000339292921,-1274.4800203984
1578502301.76807,3.9608893394470215,-0.000334838405,-1258.308345512
1578502301.8154023,4.008221626281738,-0.000338661484,-1272.1876515136
1578502301.8633654,4.056184768676758,-0.000337047502,-1266.3282512608
1578502301.911434,4.10425329208374,-0.000335843302,-1261.9565235808
1578502301.95941,4.152229309082031,-0.000339277089,-1274.4225439056
1578502302.0075274,4.2003467082977295,-0.000334784389,-1258.1122458256
1578502302.0557342,4.248553514480591,-0.000338845886,-1272.8571045344
1578502302.103787,4.2966063022613525,-0.000337274745,-1267.153234248
1578502302.1511028,4.343922138214111,-0.00033601746,-1262.588786784
1578502302.1990309,4.391850233078003,-0.000339534134,-1275.3557200736
1578502302.2477446,4.440563917160034,-0.000335101038,-1259.2618083552
1578502302.2957897,4.488609075546265,-0.00033915136,-1273.966097344
1578502302.3432887,4.536108016967773,-0.000337393954,-1267.5860106016
1578502302.3912065,4.584025859832764,-0.00033629965,-1263.6132493599998
1578502302.4397347,4.632554054260254,-0.000339668244,-1275.8425930176
1578502302.486776,4.679595470428467,-0.000335112214,-1259.3023817056
1578502302.5350373,4.727856636047363,-0.000337985344,-1269.7329928576
1578502302.5832324,4.776051759719849,-0.000337504782,-1267.9883605728
1578502302.6314385,4.824257850646973,-0.000337149017,-1266.6967913168
1578502302.6793172,4.87213659286499,-0.000337958336,-1269.6349430143998
1578502302.7274182,4.9202375411987305,-0.000336866826,-1265.6723251104002
1578502302.7757442,4.968563556671143,-0.000337759033,-1268.9113934032
1578502302.8237367,5.016556024551392,-0.000337343663,-1267.4034341551999
1578502302.871116,5.063935279846191,-0.000337082893,-1266.4567347472
1578502302.9189765,5.111795902252197,-0.000337940641,-1269.5707030864
1578502302.9672444,5.160063743591309,-0.000336839817,-1265.5742716368
1578502303.0153852,5.208204507827759,-0.000337840989,-1269.2089264656001
1578502303.063175,5.2559943199157715,-0.000337475911,-1267.8835472944
1578502303.1111057,5.303925037384033,-0.00033719372,-1266.859081088
1578502303.159616,5.352435350418091,-0.000338061713,-1270.0102428752
1578502303.2072575,5.400076866149902,-0.000337000936,-1266.1591980544001
1578502303.2550771,5.447896480560303,-0.000337950885,-1269.607892904
1578502303.303701,5.496520280838013,-0.000337513164,-1268.0187905856
1578502303.351508,5.544327259063721,-0.000337213278,-1266.9300844512002
1578502303.3996298,5.592449188232422,-0.000338042155,-1269.939239512
1578502303.4474738,5.640293121337891,-0.000336986966,-1266.1084813664
1578502303.4955094,5.688328742980957,-0.000337922014,-1269.5030796256
1578502303.543696,5.736515283584595,-0.000337406993,-1267.6333473872
1578502303.5916665,5.784485816955566,-0.000336522236,-1264.4213255744
1578502303.6397665,5.83258581161499,-0.000339696184,-1275.9440263935999
1578502303.6876578,5.8804771900177,-0.000335352495,-1260.174697848
1578502303.734852,5.927671432495117,-0.000339458697,-1275.0818535888
1578502303.782956,5.975775241851807,-0.000337314792,-1267.2986208768
1578502303.8315015,6.024320840835571,-0.000336595811,-1264.6884322544
1578502303.8792746,6.072093963623047,-0.000339625403,-1275.6870630512
1578502303.9277358,6.12055516242981,-0.000335372984,-1260.2490811136
1578502303.974987,6.167806386947632,-0.000339283608,-1274.4462104832
1578502304.023305,6.2161242961883545,-0.000337241217,-1267.0315141968001
1578502304.0717309,6.26455020904541,-0.000336043537,-1262.6834567248
1578502304.1195033,6.312322616577148,-0.000340309925,-1278.17215172
1578502304.1676974,6.360516786575317,-0.000334253535,-1256.185033464
1578502304.21575,6.4085693359375,-0.000339316204,-1274.5645470016
1578502304.2636068,6.45642614364624,-0.000337081961,-1266.4533512144
1578502304.3117046,6.504523992538452,-0.000336570665,-1264.597142216
1578502304.3591187,6.551938056945801,-0.000339461491,-1275.0919969264
1578502304.4071436,6.599962949752808,-0.000335101038,-1259.2618083552
1578502304.455433,6.648252248764038,-0.000339328311,-1274.6085002544
1578502304.5033598,6.696179151535034,-0.000337153673,-1266.7136944592
1578502304.5515454,6.7443647384643555,-0.000336633064,-1264.8236755456
1578502304.599221,6.7920403480529785,-0.000339605846,-1275.6160633184002
1578502304.6476345,6.840453863143921,-0.000335221179,-1259.6979682416002
1578502304.695681,6.888500452041626,-0.000339408405,-1274.899273512
1578502304.7437384,6.936557769775391,-0.00033722166,-1266.960514464
1578502304.7909694,6.983788728713989,-0.000336745754,-1265.2327853216002
1578502304.8394747,7.032294034957886,-0.000339617953,-1275.6600165712
1578502304.8873854,7.080204725265503,-0.000335224904,-1259.7114914816
1578502304.9355662,7.128385543823242,-0.000339477323,-1275.1494734192
1578502304.9829893,7.175808668136597,-0.000294595957,-1112.2121622928
1578502305.0312362,7.224055528640747,-0.000163716264,-637.0665248256
1578502305.0796785,7.272497892379761,-3.996864e-05,-187.813150656
1578502305.127737,7.320556402206421,3.6390498e-05,89.4010639392
1578502305.1755712,7.3683905601501465,0.000133522786,442.0301222944
1578502305.223569,7.416388273239136,0.000248917378,860.9586490912
1578502305.2717118,7.464531183242798,0.000354666263,1244.8694011952
1578502305.3189929,7.511812210083008,0.000425845385,1503.278085704
1578502305.3674388,7.560258150100708,0.000448844396,1586.7736952384
1578502305.4150696,7.60788893699646,0.000442910008,1565.2294930432
1578502305.4636068,7.656426191329956,0.000444578007,1571.2849966128001
1578502305.511612,7.7044312953948975,0.000444215722,1569.9697571488
1578502305.5597377,7.752557039260864,0.000441147946,1558.8325031584
1578502305.6077423,7.8005616664886475,0.000445217825,1573.60779188
1578502305.6556294,7.848448753356934,0.000440799631,1557.5679803824
1578502305.7037833,7.896602630615234,0.000443113968,1565.9699494272
1578502305.750852,7.943671464920044,0.000442933291,1565.3140196463999
1578502305.799423,7.992242336273193,0.000440314412,1555.8064413248
1578502305.8476188,8.040438175201416,0.000444546342,1571.1700399968001
1578502305.8957405,8.088559865951538,0.000439703465,1553.588459336
1578502305.9437027,8.136522054672241,0.000442765653,1564.7054266512
1578502305.9910483,8.183867692947388,0.000443140976,1566.0679992704002
1578502306.0389504,8.231769800186157,0.000439180061,1551.6882934543999
1578502306.0870697,8.279889106750488,0.000444985926,1572.7659057504
1578502306.1355236,8.328342914581299,0.000439928845,1554.406678888
1578502306.1833835,8.376202821731567,0.000442288816,1562.9743176063998
1578502306.2312593,8.424078702926636,0.000442231074,1562.7646910496
1578502306.2794125,8.4722318649292,0.000439455733,1552.6890930832
1578502306.3277893,8.52060866355896,0.000443524681,1567.4610019023999
1578502306.3757417,8.56856107711792,0.000439110212,1551.4347136448
1578502306.423248,8.61606740951538,0.000441830605,1561.310828392
1578502306.4717379,8.664557218551636,0.00044186227,1561.425785008
1578502306.519698,8.712517261505127,0.000439159572,1551.6139101888
1578502306.5667777,8.759597063064575,0.000441789627,1561.1620618608
1578502306.615836,8.808655261993408,0.000440813601,1557.6186970704
1578502306.6635635,8.856382846832275,0.000441437587,1559.8840158448002
1578502306.711276,8.90409541130066,0.000441433862,1559.8704926048
1578502306.759826,8.952645301818848,0.000440682285,1557.1419674640001
1578502306.807681,9.000500440597534,0.000441677868,1560.7563319872002
1578502306.8552794,9.048098802566528,0.000440584496,1556.7869542784001
1578502306.903698,9.096517324447632,0.000441121869,1558.7378332176
1578502306.9516354,9.144454717636108,0.000441072509,1558.5586366736
1578502306.9996312,9.192450523376465,0.000438924879,1550.7618807216
1578502307.0471373,9.239956617355347,0.000443259254,1566.4973957216
1578502307.0953548,9.288174152374268,0.000440372154,1556.0160678816
1578502307.143132,9.335951328277588,0.00044156611,1560.350605744
1578502307.191326,9.384145259857178,0.000441332348,1559.5019561791999
1578502307.2396066,9.43242597579956,0.000438806601,1550.3324842704
1578502307.2867608,9.479580163955688,0.000443160534,1566.1390026335998
1578502307.3350663,9.527885675430298,0.000438519754,1549.2911149216
1578502307.38309,9.57590937614441,0.000441449694,1559.9279690976
1578502307.4314392,9.624258518218994,0.000441092066,1558.6296364063999
1578502307.4791176,9.671936988830566,0.000438531861,1549.3350681744
1578502307.5276897,9.720509052276611,0.000442825258,1564.9218166432
1578502307.5757408,9.76856017112732,0.000438245945,1548.2970787279999
1578502307.62374,9.816559314727783,0.000441271812,1559.2821862848
1578502307.6708474,9.863666772842407,0.000440920703,1558.0075201712
1578502307.719749,9.91256833076477,0.000438465737,1549.0950116048
1578502307.7670696,9.959888935089111,0.000442816876,1564.8913866304
1578502307.8150163,10.007835626602173,0.000438265502,1548.3680784608
1578502307.8630068,10.055826187133789,0.000441294163,1559.3633293552
1578502307.9110186,10.103837966918945,0.000440882519,1557.8688969776001
1578502307.9591131,10.15193247795105,0.000437698327,1546.3090063408
1578502308.007593,10.200412273406982,0.000443540514,1567.5184820256
1578502308.0557683,10.248587608337402,0.000385595486,1357.1548523744
1578502308.1037266,10.29654598236084,0.000243093818,839.8167968672
1578502308.1512077,10.344027042388916,0.000101324171,325.1362703984
1578502308.1992917,10.39211106300354,7.631257e-06,-15.0064845872
1578502308.2471967,10.440016031265259,-6.7081302e-05,-286.2429587808
1578502308.2955794,10.488398790359497,-0.000180539675,-698.14223612
1578502308.3431726,10.535991907119751,-0.000277678482,-1050.7949610527999
1578502308.3914967,10.58431601524353,-0.000353822485,-1327.228149544
1578502308.4389184,10.63173770904541,-0.000372182578,-1393.8826311712
1578502308.4870117,10.67983102798462,-0.000365017913,-1367.8720313552
1578502308.5357425,10.728561878204346,-0.000370105729,-1386.3428385616
1578502308.5834122,10.776231527328491,-0.000365426764,-1369.3563240256
1578502308.6316054,10.824424743652344,-0.000365984626,-1371.3815862304
1578502308.6795437,10.872363090515137,-0.000368549488,-1380.6930612352
1578502308.7277079,10.920527219772339,-0.000362894498,-1360.1631855392
1578502308.7757883,10.968607664108276,-0.000368594192,-1380.8553546368
1578502308.8238251,11.016644477844238,-0.000364125706,-1364.6329630624
1578502308.871333,11.064152240753174,-0.000364974141,-1367.7131214864
1578502308.9192965,11.112115859985352,-0.000367666595,-1377.487806488
1578502308.9670491,11.159868478775024,-0.000362001359,-1356.9207337136
1578502309.014941,11.207760334014893,-0.000367960893,-1378.5562259472
1578502309.0636535,11.256472826004028,-0.000364606269,-1366.3775989776002
1578502309.1115649,11.304384231567383,-0.000364634208,-1366.4790287232
1578502309.1591945,11.35201382637024,-0.000365075655,-1368.081657912
1578502309.207239,11.400058269500732,-0.00036400184,-1364.183279936
1578502309.2551954,11.448014736175537,-0.000365004875,-1367.8246982
1578502309.303121,11.495940446853638,-0.000364249572,-1365.0826461888
1578502309.351691,11.54451036453247,-0.000364291482,-1365.2347962528002
1578502309.3996089,11.592428207397461,-0.000364839099,-1367.2228650096
1578502309.4477463,11.640565633773804,-0.000363766216,-1363.3278705664002
1578502309.4957461,11.688565492630005,-0.000364785083,-1367.0267653232
1578502309.5431938,11.736013174057007,-0.000363971107,-1364.0717068528
1578502309.5916638,11.784483194351196,-0.000364112668,-1364.5856299072
1578502309.6396554,11.832474708557129,-0.000364623033,-1366.4384590032
1578502309.686796,11.879615306854248,-0.000363573432,-1362.6279875328
1578502309.7357247,11.928544044494629,-0.000364643522,-1366.5128422688001
1578502309.7829025,11.975721836090088,-0.000363803469,-1363.4631138576
1578502309.8308969,12.02371621131897,-0.000363953412,-1364.0074669248002
1578502309.8797555,12.072574853897095,-0.000364421867,-1365.7081459567999
1578502309.9276383,12.120457649230957,-0.000363345258,-1361.7996246432
1578502309.9750912,12.1679105758667,-0.000364492647,-1365.9651056688
1578502310.0230467,12.215866088867188,-0.000362477265,-1358.6484628560002
1578502310.071187,12.26400637626648,-0.000363612548,-1362.7699942592
1578502310.1192682,12.312087535858154,-0.00036564935,-1370.16440024
1578502310.1667678,12.3595871925354,-0.000361622311,-1355.5446378544
1578502310.2154567,12.408276081085205,-0.000366133638,-1371.9225593951999
1578502310.2630725,12.455891847610474,-0.000362706371,-1359.4802092784
1578502310.3115578,12.504377126693726,-0.000363690779,-1363.0540040816
1578502310.3587983,12.551617622375488,-0.000365504995,-1369.640333848
1578502310.4075077,12.600327014923096,-0.000361559913,-1355.3181081552
1578502310.4557674,12.648586750030518,-0.00036607869,-1371.723076176
1578502310.5037403,12.69655966758728,-0.00036245957,-1358.584222928
1578502310.5508585,12.743677854537964,-0.000363546424,-1362.5299376896
1578502310.5991755,12.79199481010437,-0.000365302898,-1368.9066408992
1578502310.6473806,12.840199947357178,-0.0003613187,-1354.44240848
1578502310.6957192,12.888538599014282,-0.000301732682,-1138.1213287328
1578502310.7433298,12.93614912033081,-0.000193717889,-745.9844242255999
1578502310.791199,12.984018325805664,-6.5555796e-05,-280.7047617984
1578502310.8392024,13.032021760940552,1.2665987e-05,3.2715992047999976
1578502310.8876328,13.08045220375061,0.000107114203,346.1564025712
1578502310.935747,13.128566265106201,0.000212975778,730.4762644512
1578502310.9836998,13.17651915550232,0.000322996639,1129.8959982256
1578502311.0317483,13.224567651748657,0.000406289473,1432.2823027792
1578502311.0793173,13.272136688232422,0.000439864583,1554.1733821231999
1578502311.1277478,13.32056713104248,0.000441743992,1560.9963885568
1578502311.175228,13.36804747581482,0.000438325107,1548.5844684528
1578502311.2237437,13.416563034057617,0.000438709743,1549.9808509871998
1578502311.2711933,13.464012622833252,0.000438083895,1547.708772408
1578502311.3193593,13.512178659439087,0.000437499955,1545.588836632
1578502311.3677335,13.560552835464478,0.00043821428,1548.182122112
1578502311.415488,13.608307361602783,0.000436821021,1543.1240346384
1578502311.4638658,13.65668511390686,0.000437553972,1545.7849399488
1578502311.5116208,13.704440116882324,0.000437121838,1544.2161206752
