Time, Time Since Begin, V/V Raw Data, Force 
1578502651.0708897,0.034980058670043945,-7.8917e-05,-329.2112768
1578502651.3192694,0.2833597660064697,-7.7330507e-05,-323.4516726128
1578502651.366753,0.330843448638916,-7.7927485e-05,-325.618941544
1578502651.406577,0.3706674575805664,-7.9519115e-05,-331.397195096
1578502651.4469986,0.4110889434814453,-8.1100501e-05,-337.1382588304
1578502651.486942,0.4510324001312256,-8.2089566e-05,-340.7289604064
1578502651.5343091,0.4983994960784912,-8.1876293e-05,-339.9546941072
1578502651.574702,0.5387923717498779,-8.1192702e-05,-337.47298534080005
1578502651.6151597,0.5792500972747803,-7.9649501e-05,-331.8705484304
1578502651.6552374,0.6193277835845947,-7.8056939e-05,-326.0889113456
1578502651.7024055,0.6664958000183105,-7.7111647e-05,-322.65712326880004
1578502651.7430584,0.7071487903594971,-7.7326782e-05,-323.4381493728
1578502651.7831962,0.7472865581512451,-7.8102574e-05,-326.2545846496
1578502651.8309288,0.7950191497802734,-7.9623424e-05,-331.7758784896
1578502651.8703454,0.8344357013702393,-8.1242993e-05,-337.6555617872
1578502651.910336,0.8744263648986816,-8.2122162e-05,-340.8472969248
1578502651.9508493,0.9149396419525146,-8.1871636e-05,-339.9377873344
1578502651.998404,0.9624943733215332,-8.1032515e-05,-336.891442456
1578502652.0383873,1.0024776458740234,-7.9534948e-05,-331.4546752192
1578502652.0783803,1.0424706935882568,-7.7955425e-05,-325.72037492000004
1578502652.1187012,1.0827915668487549,-7.7076256e-05,-322.52863978240003
1578502652.1665027,1.1305930614471436,-7.7414326e-05,-323.75596911040003
1578502652.2071064,1.171196699142456,-7.8204088e-05,-326.6231210752
1578502652.2472255,1.2113158702850342,-7.9758465e-05,-332.266131336
1578502652.2869732,1.251063585281372,-8.1315637e-05,-337.9192885648
1578502652.3352368,1.2993271350860596,-8.2110055e-05,-340.803343672
1578502652.3752356,1.3393259048461914,-8.1857666e-05,-339.8870706464
1578502652.4152424,1.3793327808380127,-8.0914237e-05,-336.4620460048
1578502652.4552326,1.4193229675292969,-7.9480931e-05,-331.2585719024
1578502652.5031767,1.4672670364379883,-7.786788e-05,-325.40255155200003
1578502652.5424287,1.506519079208374,-7.7095814e-05,-322.59964314560006
1578502652.5824091,1.546499490737915,-7.7410601e-05,-323.74244587040005
1578502652.6224039,1.5864942073822021,-7.8400597e-05,-327.3365273488
1578502652.6703584,1.634448766708374,-7.9833902e-05,-332.5399978208
1578502652.7113354,1.6754257678985596,-8.1425533e-05,-338.3182550032
1578502652.7505496,1.7146399021148682,-8.2089566e-05,-340.7289604064
1578502652.7984233,1.7625136375427246,-7.9908408e-05,-332.8104844032
1578502652.8464336,1.8105239868164062,-7.7649951e-05,-324.6113821104
1578502652.894547,1.8586373329162598,-8.1991777e-05,-340.3739472208
1578502652.9430587,1.907149076461792,-7.7216886e-05,-323.0391829344
1578502652.9910145,1.9551048278808594,-8.0692582e-05,-335.6573496928
1578502653.038858,2.00294828414917,-7.9851598e-05,-332.6042413792
1578502653.0864282,2.05051851272583,-7.7703036e-05,-324.80410189440005
1578502653.1344023,2.0984926223754883,-8.198712e-05,-340.357040448
1578502653.1823761,2.1464664936065674,-7.7176839e-05,-322.8937963056
1578502653.2303483,2.1944386959075928,-8.0654398e-05,-335.5187264992
1578502653.2783208,2.2424111366271973,-7.9857185e-05,-332.624524424
1578502653.3262918,2.290382146835327,-7.7640638e-05,-324.5775721952
1578502653.3742647,2.33835506439209,-8.200109e-05,-340.407757136
1578502653.42224,2.3863303661346436,-7.7193603e-05,-322.9546563312
1578502653.470211,2.4343013763427734,-8.0588274e-05,-335.2786699296
1578502653.519182,2.4832723140716553,-7.9946592e-05,-332.94910759680005
1578502653.5671563,2.5312466621398926,-7.7601522e-05,-324.4355654688
1578502653.61524,2.5793304443359375,-8.2111917e-05,-340.8101034768
1578502653.6632278,2.6273181438446045,-7.7092089e-05,-322.5861199056
1578502653.7106118,2.6747021675109863,-8.0699101e-05,-335.6810162704
1578502653.758543,2.7226333618164062,-7.9953112e-05,-332.9727778048
1578502653.8064091,2.7704994678497314,-7.7598728e-05,-324.42542213120004
1578502653.8547227,2.8188130855560303,-8.1988052e-05,-340.3604239808
1578502653.903229,2.867319345474243,-7.7327713e-05,-323.4415292752
1578502653.9510968,2.915187120437622,-8.057896e-05,-335.244856384
1578502653.999117,2.963207244873047,-8.0010854e-05,-333.18240436160005
1578502654.0465772,3.010667562484741,-7.7391975e-05,-323.67482604
1578502654.0952327,3.0593230724334717,-8.2287006e-05,-341.4457465824
1578502654.1428,3.1068904399871826,-7.7256002e-05,-323.1811896608
1578502654.1909394,3.155029773712158,-8.0545433e-05,-335.1231399632
1578502654.2392619,3.203352212905884,-7.9974532e-05,-333.05054097280004
1578502654.2864213,3.250511646270752,-7.7600591e-05,-324.4321855664
1578502654.334826,3.2989163398742676,-8.2045794e-05,-340.5700505376
1578502654.3831778,3.3472681045532227,-7.728301e-05,-323.27923950400003
1578502654.4304135,3.3945038318634033,-8.0560334e-05,-335.1772365536
1578502654.4789944,3.443084716796875,-7.9957768e-05,-332.98968094720004
1578502654.5264518,3.49054217338562,-7.7605247e-05,-324.44908870880005
1578502654.574792,3.538882255554199,-8.2015991e-05,-340.4618537264
1578502654.6230507,3.5871410369873047,-7.7223405e-05,-323.062849512
1578502654.6712296,3.635319948196411,-8.0639496e-05,-335.4646262784
1578502654.718726,3.68281626701355,-7.9993159e-05,-333.11816443360004
1578502654.7672403,3.731330633163452,-7.7447854e-05,-323.8776891616
1578502654.8145843,3.778674602508545,-8.2153827e-05,-340.9622535408
1578502654.8627534,3.826843738555908,-7.7115372e-05,-322.6706465088
1578502654.9108307,3.8749210834503174,-8.0845319e-05,-336.2118460976
1578502654.9592319,3.9233222007751465,-7.985346e-05,-332.61100118400003
1578502655.006422,3.9705123901367188,-7.7458099e-05,-323.9148826096
1578502655.0552244,4.019314765930176,-8.2270242e-05,-341.38488655680004
1578502655.1030686,4.067158937454224,-7.6813623e-05,-321.57517693920005
1578502655.150752,4.114842414855957,-8.0935657e-05,-336.5398091728
1578502655.1989846,4.163074970245361,-7.9789199e-05,-332.3777080496
1578502655.2471197,4.211210012435913,-7.7505596e-05,-324.0873157184
1578502655.2944925,4.258582830429077,-8.2213432e-05,-341.17864353280004
1578502655.3424494,4.30653977394104,-7.7697448e-05,-324.7838152192
1578502655.3905308,4.354621171951294,-0.000155637972,-607.7390935488
1578502655.4390702,4.403160572052002,-0.000256969593,-975.6134104271999
1578502655.4872417,4.451332092285156,-0.000278032385,-1052.079770504
1578502655.5351884,4.499278783798218,-0.000280635431,-1061.5298687024
1578502655.5832005,4.547290802001953,-0.000274728052,-1040.0837199808
1578502655.6310544,4.595144748687744,-0.000278052874,-1052.1541537696
1578502655.6791747,4.643265008926392,-0.000276399776,-1046.1527467904
1578502655.7270658,4.6911561489105225,-0.000274385326,-1038.8394875104
1578502655.7751925,4.739282846450806,-0.000278058462,-1052.1744404448
1578502655.8230145,4.787104845046997,-0.000273185782,-1034.4846629728
1578502655.8705068,4.834597110748291,-0.000276938081,-1048.1070092624
1578502655.919094,4.883184432983398,-0.000275407918,-1042.5519055072
1578502655.9669776,4.931067943572998,-0.000273572281,-1035.8878089424
1578502656.0147219,4.978812217712402,-0.000277298503,-1049.4154852912
1578502656.0627635,5.026853799819946,-0.000272498466,-1031.9894309664
1578502656.1109364,5.075026750564575,-0.00027641654,-1046.2136068159998
1578502656.1586106,5.122700929641724,-0.00027476158,-1040.205440032
1578502656.2072196,5.171309947967529,-0.000274309888,-1038.5656173952
1578502656.2552164,5.219306707382202,-0.000275223516,-1041.8824524863999
1578502656.303332,5.267422437667847,-0.000274003483,-1037.4532446832
1578502656.3504739,5.314564228057861,-0.000274863094,-1040.5739764575999
1578502656.3988075,5.362897872924805,-0.000274482183,-1039.1911171632
1578502656.447182,5.411272287368774,-0.000274077989,-1037.7237312656
1578502656.4951158,5.4592061042785645,-0.000274877995,-1040.628073048
1578502656.5432892,5.507379531860352,-0.000271935016,-1029.9438820864
1578502656.5912251,5.5553154945373535,-0.000275939703,-1044.4824977712
1578502656.6391733,5.60326361656189,-0.000274066813,-1037.6831579152
1578502656.687131,5.65122127532959,-0.000272823498,-1033.1694271392
1578502656.7351878,5.699278116226196,-0.000276382081,-1046.0885068624
1578502656.7824442,5.746534585952759,-0.000271664001,-1028.9599892304
1578502656.8309922,5.7950825691223145,-0.000275771134,-1043.8705248736
1578502656.8787563,5.842846632003784,-0.000273872167,-1036.9765150768
1578502656.9270482,5.891138553619385,-0.000272620469,-1032.4323506576
1578502656.9745505,5.938640832901001,-0.000276437961,-1046.2913736143998
1578502657.0231767,5.987267017364502,-0.000271072611,-1026.8130069744
1578502657.0706766,6.034766912460327,-0.000275929458,-1044.4453043232
1578502657.1189277,6.083018064498901,-0.000273644924,-1036.1515320896
1578502657.1665807,6.13067102432251,-0.000272488222,-1031.9522411488
1578502657.2147927,6.178883075714111,-0.000276319683,-1045.8619771632
1578502657.2631536,6.227243900299072,-0.000270978548,-1026.4715206592
1578502657.3111756,6.27526593208313,-0.000275893137,-1044.3134445648
1578502657.3585818,6.322672128677368,-0.000273429789,-1035.3705059856
1578502657.407216,6.371306419372559,-0.000272442587,-1031.7865678448
1578502657.4548013,6.418891668319702,-0.000276224688,-1045.5171073152
1578502657.5031142,6.467204570770264,-0.000270827673,-1025.9237840592
1578502657.5508807,6.514971017837524,-0.00027582515,-1044.06662456
1578502657.5992146,6.563304901123047,-0.00027331803,-1034.964776112
1578502657.6465495,6.610639810562134,-0.000272409059,-1031.6648477936
1578502657.6951566,6.659246921539307,-0.0002760645,-1044.9355608
1578502657.7430813,6.707171678543091,-0.000270828605,-1025.927167592
1578502657.7910795,6.755169868469238,-0.000185442157,-715.9402067727999
1578502657.8391125,6.803202867507935,-3.7041493e-05,-177.1864361872
1578502657.8871064,6.851196765899658,4.7191046e-05,128.61137339840002
1578502657.934541,6.89863133430481,0.000169082545,571.126271368
1578502657.9830441,6.947134494781494,0.000305932947,1067.9479707888
1578502658.0306716,6.994761943817139,0.00042113103,1486.163091312
1578502658.078379,7.042469263076782,0.000532058068,1888.8726100672
1578502658.1267104,7.090800762176514,0.000617213547,2198.0210610288004
1578502658.1748388,7.138929128646851,0.000624909066,2225.9588732064003
1578502658.2228963,7.186986684799194,0.000628330745,2238.3809366480004
1578502658.2709568,7.235047101974487,0.000622342341,2216.6406347664
1578502658.3191972,7.283287525177002,0.000624728389,2225.3029434256005
1578502658.3663366,7.330426931381226,0.000624487177,2224.4272473808
1578502658.4144742,7.3785645961761475,0.000620874576,2211.3120607104
1578502658.4629178,7.427008152008057,0.000625797547,2229.1844146288
1578502658.5110788,7.4751691818237305,0.000620524399,2210.0407781296003
1578502658.559215,7.523305416107178,0.00062335562,2220.319242848
1578502658.6071055,7.571195840835571,0.000623272732,2220.0183262528003
1578502658.654368,7.618458271026611,0.000621951185,2215.220582024
1578502658.7027874,7.666877746582031,0.000622776337,2218.2162138448
1578502658.7511146,7.715204954147339,0.000621574,2213.8512496
1578502658.7989197,7.763010025024414,0.000621962361,2215.2611553744
1578502658.8471224,7.811212778091431,0.000621951185,2215.220582024
1578502658.8947523,7.858842611312866,0.000621193089,2212.4683903056
1578502658.942474,7.906564235687256,0.000622184016,2216.0658516864
1578502658.9908416,7.954931974411011,0.000621126965,2212.2283337360004
1578502659.0388014,8.002891778945923,0.00062156748,2213.827579392
1578502659.0871441,8.051234483718872,0.000621559098,2213.7971493792
1578502659.1345353,8.098625659942627,0.000620816834,2211.1024341536
1578502659.1824079,8.146498203277588,0.000621777028,2214.5883224512004
1578502659.2311118,8.195202112197876,0.000620683655,2210.6189411120004
1578502659.2793698,8.243460178375244,0.000621951185,2215.220582024
1578502659.3269033,8.290993690490723,0.000621629879,2214.0541127216
1578502659.374971,8.339061260223389,0.00061862357,2203.140008528
1578502659.4231198,8.387210130691528,0.000623685308,2221.5161421632
1578502659.4705305,8.43462085723877,0.000618277118,2201.8822491872
1578502659.518648,8.482738256454468,0.000621797517,2214.6627057168002
1578502659.5667233,8.530813694000244,0.000621291809,2212.8267833936
1578502659.6151464,8.57923674583435,0.000618472695,2202.5922719280006
1578502659.6630917,8.627182006835938,0.000623465516,2220.7182092864005
1578502659.7108083,8.674898624420166,0.000617993996,2200.8544030784
1578502659.7593257,8.723416090011597,0.000621652231,2214.1352594224004
1578502659.8070168,8.771107196807861,0.000620990992,2211.7346973568
1578502659.8547134,8.818803787231445,0.000618322752,2202.0479188608
1578502659.9026845,8.866774797439575,0.000559805892,1989.6083103168
1578502659.9508946,8.914984941482544,0.000374377705,1316.429820232
1578502659.9986286,8.962718963623047,0.000204550102,699.8876903008
1578502660.0471737,9.011264085769653,6.3197687e-05,186.72188288480004
1578502660.0951097,9.059200048446655,-1.6291626e-05,-101.8561190304
1578502660.143105,9.107195377349854,-9.6124597e-05,-391.68173694880005
1578502660.1911244,9.155214786529541,-0.000151415356,-592.4093084224
1578502660.2383232,9.202413558959961,-0.000152173452,-595.1615001408001
1578502660.2871127,9.251203060150146,-0.000151406974,-592.3788784096
1578502660.3344753,9.29856562614441,-0.00015136227,-592.216585008
1578502660.3827102,9.346800565719604,-0.000150052831,-587.4627976624
1578502660.4310317,9.395122051239014,-0.000150844455,-590.336709432
1578502660.4786825,9.44277286529541,-0.00014989078,-586.874487712
1578502660.5269432,9.491033554077148,-0.000149893574,-586.8846310496
1578502660.5745192,9.538609504699707,-0.000150244683,-588.1592971632
1578502660.6230464,9.58713674545288,-0.000149164349,-584.2372526096001
1578502660.6704311,9.634521484375,-0.000150090083,-587.5980373232
1578502660.7187235,9.682813882827759,-0.000149300322,-584.7308889888001
1578502660.7671838,9.731274127960205,-0.00014940463,-585.1095687520001
1578502660.815252,9.779342412948608,-0.000149718486,-586.2489915744001
1578502660.8631988,9.82728910446167,-0.000148750842,-582.7360567968001
1578502660.9108262,9.874916553497314,-0.000149732456,-586.2997082624
1578502660.9585562,9.922646522521973,-0.000148878433,-583.1992631632
1578502661.0067298,9.970820188522339,-0.000149077736,-583.9228127744
1578502661.0549896,10.01907992362976,-0.000150878914,-590.4618093856
1578502661.1023824,10.06647276878357,-0.000146422535,-574.283371064
1578502661.1506631,10.114753484725952,-0.000151785091,-593.7515943664
1578502661.1991558,10.163246154785156,-0.000147178769,-577.0288029776
1578502661.2472122,10.211302518844604,-0.000148884952,-583.2229297408
1578502661.2948337,10.258924007415771,-0.000150516629,-589.1465699216
1578502661.3423498,10.306440114974976,-0.000146216713,-573.5361548752
1578502661.390858,10.354948282241821,-0.000151604414,-593.0956645856
1578502661.4391336,10.403223991394043,-0.000146884471,-575.9603835184
1578502661.486574,10.450664281845093,-0.000148775056,-582.8239633024
1578502661.5348437,10.498934030532837,-0.000150272623,-588.2607305391999
1578502661.5824907,10.546581029891968,-0.000146079808,-573.0391349632
1578502661.6308877,10.594978094100952,-0.000151445158,-592.5175016032
1578502661.6782203,10.642310619354248,-0.00014662277,-575.010304208
1578502661.726632,10.690722465515137,-0.000148710795,-582.590670168
1578502661.7749836,10.739073991775513,-0.000150004402,-587.2869810208
1578502661.8227637,10.786854028701782,-0.000145981088,-572.6807418752
1578502661.8712075,10.83529782295227,-6.6024251e-05,-282.40544083040004
1578502661.9192107,10.883301019668579,2.9761344e-05,65.3345832576
1578502661.9665592,10.930649518966675,0.000148155726,495.1535476703999
1578502662.014633,10.978723287582397,0.000284146518,988.8545189472
1578502662.063222,11.027312278747559,0.000414944254,1463.7026197216
1578502662.110775,11.074865341186523,0.000521401875,1850.186367
1578502662.1591036,11.123193979263306,0.000612303615,2180.196043896
1578502662.2068174,11.170907735824585,0.000623923726,2222.3816948704
1578502662.2552047,11.219295024871826,0.000621890649,2215.0008121296
1578502662.3024838,11.266574144363403,0.000624874607,2225.8337732528003
1578502662.3507676,11.314857959747314,0.000619169325,2205.1213174800005
1578502662.3989043,11.36299467086792,0.000623699278,2221.5668588512003
1578502662.4472046,11.411294937133789,0.00062139798,2213.212226592
1578502662.4951534,11.459243774414062,0.000620911829,2211.4473040016
1578502662.5427852,11.50687551498413,0.00062150415,2213.5976661600002
1578502662.5909612,11.555051565170288,0.000620333478,2209.3476585312
1578502662.6391523,11.603242635726929,0.000621086918,2212.0829471072
1578502662.687193,11.651283264160156,0.000620481558,2209.8852481632002
1578502662.7344947,11.698585033416748,0.000619298778,2205.5912836512002
1578502662.7828922,11.74698257446289,0.000622808933,2218.3345503632004
1578502662.8310246,11.795114994049072,0.000617396086,2198.6837506144
1578502662.878335,11.842425346374512,0.000622374006,2216.7555913824
1578502662.926646,11.89073634147644,0.000619661063,2206.9065231152003
1578502662.9748442,11.938934564590454,0.000619127415,2204.9691674160003
1578502663.0232768,11.987367153167725,0.000622135587,2215.8900350448002
1578502663.0705442,12.034634590148926,0.00061741937,2198.768280848
1578502663.1187415,12.082831859588623,0.000621867366,2214.9162855264
1578502663.1671903,12.131280660629272,0.000619379804,2205.8854404416
1578502663.2150261,12.179116487503052,0.00061887037,2204.0359912480003
1578502663.2631004,12.227190732955933,0.000621851534,2214.8588090336
1578502663.3110616,12.27515196800232,0.000616848469,2196.6956818576
1578502663.3589458,12.323036193847656,0.000621776097,2214.5849425488004
1578502663.4064884,12.37057876586914,0.000619009137,2204.5397709648
1578502663.4544425,12.418532848358154,0.0006185323,2202.8086619200003
1578502663.5028434,12.466933727264404,0.000621812418,2214.7168023072
1578502663.5511909,12.515281200408936,0.000616656616,2195.9991787264003
1578502663.5988584,12.56294870376587,0.000621696003,2214.2941692912004
1578502663.6461914,12.610281705856323,0.000618765131,2203.6539315824
1578502663.6951442,12.659234523773193,0.000618388876,2202.2879754304
1578502663.742341,12.70643138885498,0.000621628948,2214.0507328192
1578502663.7907834,12.754873752593994,0.000612156466,2179.6618341664002
1578502663.8392017,12.803292036056519,0.000476622023,1687.6175922992002
1578502663.8864367,12.850527048110962,0.000293213874,1021.7726481696
1578502663.9346335,12.898723840713501,0.000131885521,436.08619543839995
1578502663.983243,12.947333335876465,2.2952445e-05,40.615556328
1578502664.0304937,12.994584083557129,-6.5147877e-05,-279.2238526608
1578502664.0784857,13.04257607460022,-0.000177187845,-685.973752488
1578502664.1268988,13.090989112854004,-0.000285980292,-1080.9338520768
1578502664.1745298,13.138620138168335,-0.000381774269,-1428.7043061776
1578502664.2231426,13.187232971191406,-0.000450381078,-1677.7744655712
1578502664.2702947,13.234385013580322,-0.000467850827,-1741.1966423408
1578502664.3189077,13.282998085021973,-0.000461362302,-1717.6407011807999
1578502664.367102,13.331192255020142,-0.000460523181,-1714.5943563024
1578502664.4152076,13.379297971725464,-0.000459575094,-1711.1524212576
1578502664.4624887,13.426578998565674,-0.000458276831,-1706.4392072624
1578502664.5107965,13.474886894226074,-0.000458817929,-1708.4036094416
1578502664.558686,13.522776365280151,-0.000457400456,-1703.2576154624
1578502664.6071806,13.571270942687988,-0.000457683578,-1704.2854615712
1578502664.6552143,13.619304656982422,-0.000457349233,-1703.0716554832
1578502664.7030916,13.667181968688965,-0.000456489623,-1699.9509273392
1578502664.7508936,13.714983940124512,-0.000459522009,-1710.9597014736
1578502664.7989676,13.763057947158813,-0.000453999266,-1690.9099352864
1578502664.8463614,13.810451745986938,-0.000457432121,-1703.3725720784
