Time, Time Since Begin, V/V Raw Data, Force 
1578503477.217962,0.02398538589477539,0.000792623,2834.8275392
1578503477.4741511,0.28017449378967285,0.000792300329,2833.6561144016
1578503477.5145373,0.3205606937408447,0.000792606734,2834.7684871136
1578503477.5538168,0.35984015464782715,0.000793338753,2837.4260088912
1578503477.6024523,0.4084756374359131,0.000794914551,2843.1467859504005
1578503477.642636,0.44865942001342773,0.000796506181,2848.9250395024005
1578503477.6822894,0.4883127212524414,0.00079733599,2851.9375780960004
1578503477.7223573,0.5283806324005127,0.000796915963,2850.4127120752
1578503477.7706099,0.5766332149505615,0.000796047039,2847.2581703856004
1578503477.8100433,0.6160666942596436,0.000794527121,2841.7402600784003
1578503477.849988,0.6560113430023193,0.00079291407,2835.884239728
1578503477.890101,0.6961243152618408,0.000792023726,2832.6519348704
1578503477.9383428,0.7443661689758301,0.000792431645,2834.1328440080006
1578503477.9783278,0.784351110458374,0.000793529674,2838.1191284896
1578503478.0185313,0.8245546817779541,0.000794973224,2843.3597924096002
1578503478.058447,0.8644702434539795,0.00079659,2849.2293360000003
1578503478.1060636,0.9120869636535645,0.000797320157,2851.8800979728003
1578503478.146543,0.952566385269165,0.000796966255,2850.595292152
1578503478.186254,0.9922773838043213,0.000795907341,2846.7510107664
1578503478.2262125,1.032235860824585,0.000794546679,2841.8112634416
1578503478.274184,1.080207347869873,0.000792901032,2835.8369065728
1578503478.314161,1.1201844215393066,0.000792219304,2833.3619612416
1578503478.354139,1.1601624488830566,0.000792608596,2834.7752469184
1578503478.3941164,1.2001397609710693,0.00079382956,2839.207834624
1578503478.4420874,1.2481107711791992,0.000795179047,2844.1070122288006
1578503478.4820654,1.2880887985229492,0.000796749257,2849.8075026128
1578503478.5220416,1.3280649185180664,0.000797350891,2851.9916746864
1578503478.5620189,1.368042230606079,0.000796932727,2850.4735721008
1578503478.6099913,1.4160146713256836,0.000795605592,2845.6555411968
1578503478.6499684,1.4559917449951172,0.000794220716,2840.6278873664
1578503478.6899467,1.4959700107574463,0.000792606734,2834.7684871136
1578503478.7299247,1.5359480381011963,0.000792169012,2833.1793811648
1578503478.7778955,1.583918809890747,0.000792530365,2834.491237096
1578503478.8178742,1.6238975524902344,0.000793932006,2839.5797545824003
1578503478.8578515,1.663874864578247,0.000795252621,2844.3741152784
1578503478.8978426,1.7038660049438477,0.000796804205,2850.0069858320003
1578503478.9458618,1.751885175704956,0.000796850771,2850.1760390384006
1578503478.9939783,1.800001621246338,0.000792126171,2833.0238511984
1578503479.0422955,1.8483188152313232,0.000796811655,2850.0340323120004
1578503479.0900462,1.8960695266723633,0.000793979503,2839.7521876912006
1578503479.1383336,1.944356918334961,0.000793944113,2839.6237078352
1578503479.1865046,1.992527961730957,0.00079675857,2849.841312528
1578503479.2345324,2.040555715560913,0.000792165287,2833.1658579248
1578503479.2823992,2.0884225368499756,0.000796814449,2850.0441756496
1578503479.3304846,2.136507987976074,0.000793890096,2839.4276045184006
1578503479.37756,2.1835832595825195,0.000794050284,2840.0091510336
1578503479.4259713,2.23199462890625,0.000796707347,2849.6553525488002
1578503479.4740505,2.280073881149292,0.000792141072,2833.0779477888004
1578503479.5218542,2.3278775215148926,0.000796850771,2850.1760390384006
1578503479.569994,2.3760173320770264,0.000793790445,2839.065831528
1578503479.6180825,2.4241058826446533,0.000794136897,2840.3235908688002
1578503479.666246,2.472269296646118,0.000796657056,2849.4727761024
1578503479.7142715,2.5202949047088623,0.00079201255,2832.61136152
1578503479.7623515,2.5683748722076416,0.000797147863,2851.2546018352004
1578503479.810407,2.6164302825927734,0.00079361815,2838.4403317600004
1578503479.8581886,2.6642119884490967,0.000794264488,2840.7867972352005
1578503479.9063864,2.712409734725952,0.000796990469,2850.6831986576003
1578503479.9543374,2.7603607177734375,0.000792087056,2832.8818481024005
1578503480.0021596,2.808182954788208,0.000797460787,2852.3906411248004
1578503480.0502515,2.8562748432159424,0.00079374481,2838.9001582240003
1578503480.0982707,2.904294013977051,0.000794495456,2841.6253034624
1578503480.146539,2.9525623321533203,0.000797012821,2850.7643453584
1578503480.1936927,2.99971604347229,0.0007921746,2833.19966784
1578503480.2416186,3.0476419925689697,0.000787178054,2815.0602072416004
1578503480.2898679,3.095891237258911,0.000584258698,2078.3817772192
1578503480.3382938,3.144317150115967,0.000350301154,1229.0223094816
1578503480.3865151,3.1925384998321533,0.000144639984,482.38999791360004
1578503480.4346497,3.240673065185547,1.350418e-06,-37.8084424928
1578503480.4826443,3.288667678833008,-0.000125698745,-499.047723848
1578503480.5303438,3.336367130279541,-0.000262634829,-996.1804832015999
1578503480.578584,3.3846073150634766,-0.000300675631,-1134.2838107824
1578503480.6263552,3.4323785305023193,-0.000293843448,-1109.4802536192
1578503480.6742616,3.4802849292755127,-0.000297153369,-1121.4965908176
1578503480.7225907,3.528614044189453,-0.000290984288,-1099.1003591551998
1578503480.7699046,3.575927972793579,-0.000294645317,-1112.3913588368
1578503480.8180654,3.624088764190674,-0.000292998739,-1106.4136220656
1578503480.866358,3.6723814010620117,-0.000290518627,-1097.4098234608
1578503480.9145908,3.720614194869995,-0.000294839032,-1113.0946217728
1578503480.962581,3.768604278564453,-0.00028922502,-1092.7135126080002
1578503481.0102575,3.8162808418273926,-0.000293324701,-1107.5969945104
1578503481.0578558,3.8638792037963867,-0.000291798264,-1102.0554176256
1578503481.1061559,3.9121792316436768,-0.000291087665,-1099.475659016
1578503481.1544976,3.9605209827423096,-0.000291898847,-1102.4205741488
1578503481.2020128,4.008036136627197,-0.00029073935,-1098.21113624
1578503481.25027,4.056293249130249,-0.000291446224,-1100.7773716095999
1578503481.2984731,4.104496479034424,-0.000292968005,-1106.302045352
1578503481.3464627,4.152486085891724,-0.000290589407,-1097.6667831728
1578503481.3945346,4.2005579471588135,-0.000293459743,-1108.0872509872
1578503481.4424622,4.248485565185547,-0.000287947245,-1088.074678248
1578503481.4901505,4.296173810958862,-0.000292419456,-1104.3105930624
1578503481.5380309,4.344054222106934,-0.000290642492,-1097.8595029568
1578503481.5865266,4.392549991607666,-0.000288740732,-1090.9553534528
1578503481.6340659,4.440089225769043,-0.000293047167,-1106.5894350767999
1578503481.6820457,4.4880690574646,-0.000287518837,-1086.5193858448001
1578503481.7302265,4.536249876022339,-0.000292128883,-1103.2556968432
1578503481.7785866,4.5846099853515625,-0.000290153548,-1096.0844406592
1578503481.826335,4.6323583126068115,-0.000288425945,-1089.812550728
1578503481.8744268,4.680450201034546,-0.000292748213,-1105.5041124752001
1578503481.9218102,4.72783350944519,-0.000287114643,-1085.0519999472
1578503481.970479,4.776502370834351,-0.000291939825,-1102.56934068
1578503482.018564,4.824587345123291,-0.00028988719,-1095.117454576
1578503482.0655768,4.871600151062012,-0.000288336538,-1089.4879675552
1578503482.114319,4.920342445373535,-0.000292519107,-1104.6723660528
1578503482.1616724,4.967695713043213,-0.000286968425,-1084.52117012
1578503482.2100768,5.016100168228149,-0.000291824341,-1102.1500875663999
1578503482.2580893,5.064112663269043,-0.000251207501,-954.6947116304
1578503482.3062212,5.112244606018066,-6.1436556e-05,-265.7502729024
1578503482.3542142,5.160237550735474,5.858019e-05,169.958521776
1578503482.402289,5.208312273025513,0.000241106376,832.6015874304001
1578503482.4505732,5.256596565246582,0.000405788422,1430.4632872288
1578503482.497788,5.303811311721802,0.000561706722,1996.5090835488
1578503482.545791,5.351814270019531,0.000631313771,2249.2105142384
1578503482.5940225,5.400045871734619,0.000624400564,2224.1128075456004
1578503482.6424105,5.448433876037598,0.000628921203,2240.5245353712003
1578503482.6902199,5.496243238449097,0.000623190776,2219.7207931904
1578503482.7385726,5.544595956802368,0.000625119545,2226.7229961680005
1578503482.7864397,5.59246301651001,0.000625978224,2229.8403444096
1578503482.8337696,5.6397929191589355,0.000621824525,2214.7607555600002
1578503482.8821242,5.68814754486084,0.000627073459,2233.8164855536
1578503482.9306483,5.736671686172485,0.000621940941,2215.1833922064
1578503482.9781277,5.784151077270508,0.000624246895,2223.554927608
1578503483.0265381,5.832561492919922,0.00062525738,2227.2233923520002
1578503483.074474,5.880497455596924,0.000621330924,2212.9687864896005
1578503483.1219637,5.927987098693848,0.000626225956,2230.7397106624003
1578503483.1702745,5.976297855377197,0.000623394735,2220.461245944
1578503483.21851,6.024533271789551,0.00062364433,2221.3673756320004
1578503483.2661579,6.072181224822998,0.000623878092,2222.2160251968003
1578503483.314289,6.120312452316284,0.000622859225,2218.51713044
1578503483.362475,6.168498277664185,0.000623839907,2222.0773983728004
1578503483.409767,6.215790271759033,0.000622763298,2218.1688770592004
1578503483.4576814,6.263704776763916,0.000623144209,2219.5517363536
1578503483.5058148,6.311838150024414,0.000623359345,2220.3327660880004
1578503483.5537307,6.3597540855407715,0.000622503459,2217.2255575536
1578503483.6021738,6.4081971645355225,0.000623528846,2220.9481225184004
1578503483.6501935,6.456216812133789,0.000622530468,2217.3236110272
1578503483.6980467,6.504070043563843,0.000623187982,2219.7106498528
1578503483.7458007,6.55182409286499,0.00062379986,2221.932011744
1578503483.7944841,6.600507497787476,0.000620612875,2210.3619814
1578503483.842395,6.648418426513672,0.000625125133,2226.7432828432
1578503483.8905892,6.696612596511841,0.00062063057,2210.4262213280003
1578503483.937881,6.74390435218811,0.000622968189,2218.9127133456004
1578503483.9858665,6.791889905929565,0.000623596832,2221.1949388928
1578503484.0338447,6.839868068695068,0.000620617531,2210.3788845424
1578503484.0821302,6.888153553009033,0.000625188462,2226.9731924448006
1578503484.130021,6.936044454574585,0.000620655715,2210.517507736
1578503484.178209,6.984232425689697,0.000623160042,2219.6092164768
1578503484.226111,7.032134294509888,0.000623557717,2221.0529357968003
1578503484.2741787,7.080202102661133,0.000620081089,2208.4313855056002
1578503484.3220716,7.128094911575317,0.00062539801,2227.733935504
1578503484.3701656,7.176188945770264,0.000620432198,2209.7060516192005
1578503484.4180098,7.2240331172943115,0.000622927211,2218.7639468144002
1578503484.4664729,7.272496223449707,0.000623456202,2220.6843957408005
1578503484.5142534,7.320276737213135,0.000619923696,2207.8599859584
1578503484.5625489,7.368572235107422,0.000625290908,2227.3451124032003
1578503484.6097968,7.415820121765137,0.000619962811,2208.0019890544
1578503484.657674,7.46369743347168,0.000622908585,2218.6963269840003
1578503484.706459,7.512482404708862,0.00062317308,2219.656549632
1578503484.754356,7.560379266738892,0.000619735569,2207.1770096976
1578503484.8019989,7.608022212982178,0.000625090674,2226.6181828896006
1578503484.8500764,7.656099796295166,0.000619654544,2206.8828565376
1578503484.8983016,7.704324960708618,0.000504485331,1788.7725456624
1578503484.9462318,7.752255201339722,0.000276030973,959.3918443791999
1578503484.9941237,7.80014705657959,7.4268319e-05,226.91270529759998
1578503485.042076,7.84809947013855,-3.6965124e-05,-176.9091861696
1578503485.0904803,7.896503686904907,-0.000194545835,-748.9901993840001
1578503485.137813,7.943836450576782,-0.000330219045,-1241.5382209680001
1578503485.1859972,7.992020606994629,-0.000423938036,-1581.7756458944002
1578503485.2340982,8.04012155532837,-0.000507060438,-1883.5432141152
1578503485.2823877,8.088411092758179,-0.000572280958,-2120.3197899231996
1578503485.3306181,8.136641502380371,-0.000606842339,-2245.7914275055996
1578503485.3779023,8.18392562866211,-0.000594791956,-2202.0437170623995
1578503485.426081,8.232104301452637,-0.000592116266,-2192.3298920863995
1578503485.474092,8.280115365982056,-0.000593553297,-2197.5468894288
1578503485.522403,8.328426361083984,-0.000587312505,-2174.890318152
1578503485.570376,8.376399278640747,-0.000591762364,-2191.0450862656
1578503485.6185272,8.424550533294678,-0.000587768853,-2176.5470439312
1578503485.6658835,8.471906900405884,-0.00058791507,-2177.0778701279996
1578503485.7145462,8.520569562911987,-0.000590094365,-2184.989582696
1578503485.7625105,8.568533897399902,-0.000584473833,-2164.5848033231996
1578503485.810307,8.61633038520813,-0.000589619391,-2183.2652370864
1578503485.8586109,8.664634227752686,-0.000585947186,-2169.9336640543997
1578503485.9059732,8.71199655532837,-0.000585983507,-2170.0655238127997
1578503485.9541664,8.760189771652222,-0.000588716008,-2179.9855954431996
1578503486.0023873,8.80841064453125,-0.000583352521,-2160.5139922383996
1578503486.0504632,8.856486558914185,-0.000588495284,-2179.1842790336
1578503486.098538,8.904561281204224,-0.000584815629,-2165.8256595216
1578503486.1460137,8.95203709602356,-0.000585060567,-2166.7148824367996
1578503486.194403,9.000426292419434,-0.000587768853,-2176.5470439312
1578503486.2422783,9.048301696777344,-0.000584841706,-2165.9203294624
1578503486.2904024,9.096425771713257,-0.000585595146,-2168.6556180384
1578503486.3382916,9.144315004348755,-0.000584910624,-2166.1705293696
1578503486.3863366,9.192359924316406,-0.000584900379,-2166.1333359215996
1578503486.4345434,9.240566730499268,-0.0005869288,-2173.4973155199996
1578503486.4819176,9.287940979003906,-0.000581966713,-2155.4829548752
1578503486.5301354,9.336158752441406,-0.00058723893,-2174.6232114719996
1578503486.5785,9.384523391723633,-0.000583664514,-2161.6466516256
1578503486.6264644,9.432487726211548,-0.000583981164,-2162.7962177855998
1578503486.673634,9.479657411575317,-0.000586763024,-2172.8954823296
1578503486.7221634,9.528186798095703,-0.000581593253,-2154.1271456912
1578503486.7703502,9.57637357711792,-0.000586903654,-2173.4060254816
1578503486.8183115,9.624334812164307,-0.000583237037,-2160.0947391247996
1578503486.8661454,9.672168731689453,-0.000583663583,-2161.6432717231996
1578503486.9145598,9.720583200454712,-0.000586350448,-2171.3976664191996
1578503486.9622126,9.768235921859741,-0.00058122538,-2152.7916195519997
1578503487.009899,9.815922260284424,-0.000586526468,-2172.0366894271997
1578503487.0579152,9.863938570022583,-0.000582807697,-2158.5360631887997
1578503487.1058552,9.91187858581543,-0.00058336556,-2160.561329024
1578503487.1544766,9.960500001907349,-0.000586072914,-2170.3901069855997
1578503487.202347,10.008370399475098,-0.000580956228,-2151.8144901312
1578503487.2504215,10.056444883346558,-0.000586316921,-2171.2759499984
1578503487.2985384,10.104561805725098,-0.000582498498,-2157.4135471392
1578503487.3458273,10.151850700378418,-0.000583083369,-2159.5368628175997
1578503487.3937235,10.19974684715271,-0.000585711561,-2169.0782510543995
1578503487.4416802,10.247703552246094,-0.00058064796,-2150.6953539839997
1578503487.4902618,10.296285152435303,-0.00058575999,-2169.2540676959998
1578503487.5384097,10.344433069229126,-0.000582405366,-2157.0754407264
1578503487.5865362,10.39255952835083,-0.000578321517,-2142.2494353168
1578503487.6338148,10.439838171005249,-0.000408424996,-1525.4571054783999
1578503487.6820939,10.488117218017578,-0.000188532285,-727.1586074639999
1578503487.7305326,10.536556005477905,-2.5638379e-05,-135.7885711216
1578503487.7785394,10.5845627784729,8.2728453e-05,257.6263757712
1578503487.8264582,10.632481575012207,0.000227080658,781.6826208031999
1578503487.8743443,10.680367708206177,0.000353739597,1241.5052329487999
1578503487.922465,10.728488445281982,0.000474270433,1679.0803799632
1578503487.9705353,10.776558637619019,0.000565105118,2008.8466203871997
1578503488.0184953,10.82451868057251,0.000568809919,2022.2965299375999
1578503488.0656586,10.871681928634644,0.000565969385,2011.984255304
1578503488.1142368,10.920260190963745,0.00056261383,1999.8022484320002
1578503488.1624951,10.968518495559692,0.000566508621,2013.9418976783998
1578503488.210532,11.016555309295654,0.000560842454,1993.3714450016
1578503488.258142,11.064165353775024,0.000564347021,2006.0944250384002
1578503488.30623,11.112253427505493,0.000563247129,2002.1013771216
1578503488.3537245,11.159747838973999,0.000560836866,1993.3511583264
1578503488.4018688,11.207892179489136,0.000564983115,2008.403700696
1578503488.4505343,11.256557703018188,0.000561848283,1997.0230066032002
1578503488.4985185,11.304541826248169,0.000562419184,1999.0956055936
1578503488.546421,11.352444410324097,0.0005622264,1998.39572256
1578503488.593835,11.399858474731445,0.000561509281,1995.7922937424
1578503488.6421573,11.448180675506592,0.000562355854,1998.8656923616
1578503488.6901457,11.496169090270996,0.000561254099,1994.8658810096
1578503488.7383187,11.544342041015625,0.0005619023,1997.21910992
1578503488.7864106,11.59243392944336,0.000561798923,1996.8438100591998
1578503488.834543,11.640566349029541,0.000559598207,1988.8543306927997
1578503488.8823788,11.68840217590332,0.00056378264,2004.045496256
1578503488.930614,11.736637353897095,0.000558725558,1985.6862657632
1578503488.9779263,11.783949613571167,0.000562528148,1999.4911884992
1578503489.0262015,11.83222484588623,0.000561580062,1996.0492570847998
1578503489.0737987,11.879822015762329,0.000559027307,1986.7817353328
1578503489.1222942,11.928317546844482,0.000563418493,2002.7234969872
1578503489.1705205,11.97654390335083,0.000558529049,1984.9728594896
1578503489.2181954,12.024218797683716,0.000562164001,1998.1691892304
1578503489.266126,12.072149276733398,0.000561105087,1994.3249078448
1578503489.3143835,12.120406866073608,0.000559061766,1986.9068352863999
1578503489.3625011,12.168524503707886,0.000563114882,2001.6212676128
1578503489.4105105,12.216533899307251,0.000558204949,1983.7962468495998
1578503489.458546,12.264569282531738,0.000561981462,1997.5064996448
1578503489.5056,12.311623334884644,0.000560800545,1993.2192985679999
1578503489.5540524,12.36007571220398,0.000558842905,1986.112282312
1578503489.6025403,12.408563613891602,0.000562875532,2000.7523313728002
1578503489.649902,12.455925464630127,0.000558068976,1983.3026104704
1578503489.697872,12.503895282745361,0.000561784953,1996.7930933711998
1578503489.7460878,12.552111148834229,0.00055003725,1954.1442324000002
1578503489.7939491,12.599972486495972,0.000362926163,1274.8561421552001
1578503489.842223,12.64824628829956,0.000151528046,507.39641819840006
1578503489.8902223,12.696245670318604,3.173016e-06,-31.1916827136
1578503489.9383228,12.744346141815186,-0.00013272278,-524.5477805119999
1578503489.9863558,12.792379140853882,-0.000287502073,-1086.4585258192
1578503490.034318,12.840341329574585,-0.000402610749,-1504.3490631696
1578503490.082519,12.888542413711548,-0.000487346202,-1811.9726517408
1578503490.1303477,12.936371088027954,-0.000561535358,-2081.3089636832
1578503490.1785276,12.984550952911377,-0.000607648864,-2248.7194358655997
1578503490.225713,13.031736373901367,-0.000602176413,-2228.8522497552
1578503490.2736096,13.079632997512817,-0.000600793399,-2223.8313557295996
1578503490.322438,13.128461360931396,-0.000595510006,-2204.6505257823997
1578503490.3702343,13.176257610321045,-0.000599210151,-2218.0835321904
1578503490.4183474,13.22437071800232,-0.000594650395,-2201.529794008
1578503490.4660406,13.272063970565796,-0.000595667399,-2205.2219253296
1578503490.514422,13.32044529914856,-0.000596654601,-2208.8058634704
1578503490.5621903,13.368213653564453,-0.000592344441,-2193.1582586064
1578503490.6100073,13.416030645370483,-0.0005971957,-2210.77026928
1578503490.6581225,13.46414589881897,-0.000592464581,-2193.5944148624
1578503490.7062676,13.512290954589844,-0.000593958423,-2199.0176588592
1578503490.7544317,13.560455083847046,-0.000595419668,-2204.3225627071997
1578503490.8016868,13.607710123062134,-0.0005913442,-2189.52698368
1578503490.85041,13.656433343887329,-0.000595968217,-2206.3140149968
1578503490.8985124,13.704535722732544,-0.000591576099,-2190.3688698096
