Time, Time Since Begin, V/V Raw Data, Force 
1578506707.0809824,0.25930261611938477,-0.000115797855,-463.103532792
1578506707.1212826,0.299602746963501,-0.000117252581,-468.38477006240004
1578506707.1612818,0.339601993560791,-0.000118063763,-471.3296851952
1578506707.2090483,0.38736844062805176,-0.000118050724,-471.28234840960005
1578506707.2491276,0.4274477958679199,-0.000117459334,-469.1353661536
1578506707.2890358,0.46735596656799316,-0.000115950592,-463.65802919680004
1578506707.329273,0.5075931549072266,-0.000114873983,-459.7495078832
1578506707.376911,0.5552310943603516,-0.000113828108,-455.9525632832
1578506707.4172275,0.5955476760864258,-0.000113849528,-456.03032645120004
1578506707.4571996,0.6355197429656982,-0.00011435058,-457.849345632
1578506707.4966094,0.6749296188354492,-0.000115879811,-463.40106585440003
1578506707.5452256,0.7235457897186279,-0.000117136165,-467.96213341600003
1578506707.5850122,0.7633323669433594,-0.000118253753,-472.0194248912
1578506707.624698,0.8030180931091309,-0.000118317083,-472.24933812320006
1578506707.6652722,0.8435924053192139,-0.000117755495,-470.210549048
1578506707.713174,0.8914942741394043,-0.000116121024,-464.27676552959997
1578506707.7527127,0.9310328960418701,-0.000114797615,-459.47226149600004
1578506707.793181,0.9715011119842529,-0.000113592483,-455.0971502832
1578506707.8323538,1.010673999786377,-0.000113647431,-455.2966335024
1578506707.8803248,1.0586450099945068,-0.000114181079,-457.2339892016
1578506707.9203045,1.0986247062683105,-0.000115771778,-463.0088628512
1578506707.9602802,1.1386003494262695,-0.000117145479,-467.9959469616
1578506708.000259,1.1785790920257568,-0.000118359923,-472.4048644592
1578506708.0492291,1.2275493144989014,-0.000118280761,-472.1174747344
1578506708.0892062,1.267526388168335,-0.000117694028,-469.98739925120003
1578506708.1291828,1.3075029850006104,-0.000116056763,-464.0434723952
1578506708.16916,1.347480058670044,-0.000114799477,-459.4790213008
1578506708.217135,1.3954551219940186,-0.000113573857,-455.0295304528
1578506708.2571115,1.435431718826294,-0.000113587826,-455.0802435104
1578506708.2970872,1.475407361984253,-0.000114181079,-457.2339892016
1578506708.3370645,1.5153846740722656,-0.000115771778,-463.0088628512
1578506708.3850384,1.5633585453033447,-0.00011704769,-467.640933776
1578506708.4250147,1.603334903717041,-0.000118460506,-472.7700209824
1578506708.465007,1.643327236175537,-0.000118207186,-471.8503680544
1578506708.504978,1.683298110961914,-0.000117884949,-470.6805188496
1578506708.5531054,1.7314255237579346,-0.000116065145,-464.073902408
1578506708.5932384,1.7715585231781006,-0.000113127753,-453.4099944912
1578506708.641287,1.8196072578430176,-0.000118055381,-471.29925518240003
1578506708.688646,1.8669662475585938,-0.000115506351,-462.0452566704
1578506708.7365196,1.914839744567871,-0.000114923343,-459.9287044272
1578506708.784536,1.9628560543060303,-0.000118452124,-472.73959096960004
1578506708.8332818,2.0116019248962402,-0.000113133341,-453.4302811664
1578506708.880406,2.0587260723114014,-0.00011811126,-471.502118304
1578506708.9284704,2.106790542602539,-0.000115439296,-461.80182019840004
1578506708.9768956,2.1552157402038574,-0.000114873983,-459.7495078832
1578506709.0253325,2.2036526203155518,-0.000118432567,-472.6685912368
1578506709.0731804,2.2515006065368652,-0.000113140792,-453.4573312768
1578506709.121273,2.299593210220337,-0.000118387863,-472.50629783520003
1578506709.16917,2.347490072250366,-0.000115746632,-462.9175728128
1578506709.2167108,2.395030975341797,-0.00011522416,-461.020790464
1578506709.265272,2.443592071533203,-0.00011880137,-474.00749364800004
1578506709.3132777,2.491597890853882,-0.000113450922,-454.5832272288
1578506709.3610735,2.539393663406372,-0.000118559226,-473.1284140704
1578506709.4088213,2.587141513824463,-0.000119290315,-475.78255957600004
1578506709.4569764,2.635296583175659,-0.000116066076,-464.07728231040005
1578506709.5048459,2.683166027069092,-0.000116907991,-467.1337705264
1578506709.5530927,2.731412887573242,-0.00011575222,-462.937859488
1578506709.6007774,2.779097557067871,-0.000116860494,-466.96133741759996
1578506709.6490529,2.8273730278015137,-0.000116351061,-465.1118918544
1578506709.6971607,2.875480890274048,-0.000116150826,-464.3849587104
1578506709.744716,2.9230360984802246,-0.000116997398,-467.4583536992
1578506709.7926936,2.9710137844085693,-0.000115800649,-463.11367612960004
1578506709.8407996,3.0191197395324707,-0.000116874464,-467.0120541056
1578506709.8893485,3.0676686763763428,-0.000116396695,-465.27756152800004
1578506709.9365618,3.114881992340088,-0.000116162933,-464.4289119632
1578506709.9850495,3.163369655609131,-0.000117044896,-467.6307904384
1578506710.0328798,3.211199998855591,-0.000115847215,-463.282729336
1578506710.0809546,3.25927472114563,-0.000116870739,-466.9985308656
1578506710.1283736,3.3066937923431396,-0.000116389245,-465.250515048
1578506710.1770027,3.35532283782959,-0.000116137788,-464.3376255552
1578506710.224361,3.4026811122894287,-0.000118551776,-473.1013675904
1578506710.2726672,3.4509873390197754,-0.0001139706,-456.46986624
1578506710.3206074,3.498927593231201,-0.000118382275,-472.48601116000003
1578506710.3692737,3.547593832015991,-0.000116042793,-463.9927557072
1578506710.4167523,3.5950725078582764,-0.000115432777,-461.7781536208
1578506710.4650085,3.6433286666870117,-0.000118594617,-473.2568975568
1578506710.513274,3.691594123840332,-0.000113919377,-456.2839062608
1578506710.5608304,3.7391505241394043,-0.000118296593,-472.1749512272
1578506710.6086142,3.7869343757629395,-0.000116044655,-463.999515512
1578506710.6571789,3.8354990482330322,-0.000115352683,-461.48738036320003
1578506710.7045176,3.8828377723693848,-0.000118635595,-473.40566408800004
1578506710.7528095,3.9311296939849854,-0.000113964081,-456.4461996624
1578506710.8012228,3.9795429706573486,-0.00011827983,-472.11409483200003
1578506710.8493693,4.027689456939697,-0.000116119161,-464.2700020944
1578506710.8972597,4.075579881668091,-0.000115357339,-461.50428350560003
1578506710.9451451,4.123465299606323,-0.000118648633,-473.4529972432
1578506710.9931118,4.171432018280029,-0.000113926828,-456.3109563712
1578506711.0408695,4.219189643859863,-0.000118222088,-471.9044682752
1578506711.0883322,4.266652345657349,-0.000116109848,-464.2361921792
1578506711.1373146,4.315634727478027,-0.000115248375,-461.1087006
1578506711.1851137,4.363433837890625,-0.000118621625,-473.3549474
1578506711.2330163,4.411336421966553,-0.000113947317,-456.38533963680004
1578506711.2812572,4.459577322006226,-0.000118206255,-471.846988152
1578506711.3287063,4.507026433944702,-0.000116170384,-464.4559620736
1578506711.3770022,4.5553224086761475,-0.000115236267,-461.0647437168
1578506711.4251533,4.603473424911499,-0.000118665397,-473.5138572688
1578506711.4732673,4.65158748626709,-0.000109043904,-438.5839890816
1578506711.5207944,4.699114561080933,-6.0879625e-05,-263.7283906
1578506711.5692587,4.747578859329224,-1.8665567e-05,-110.4744744368
1578506711.6172795,4.795599699020386,3.4689903e-05,83.22722385120001
1578506711.665242,4.843562126159668,7.9519115e-05,245.975195096
1578506711.713267,4.891587257385254,0.000128300861,423.0724457744
1578506711.7609358,4.939255952835083,0.000164292753,553.7374104912
1578506711.8092663,4.987586498260498,0.00020593591,704.918727664
1578506711.857225,5.035545110702515,0.000242563896,837.8929680384
1578506711.905205,5.08352518081665,0.000267671421,929.0433267983999
1578506711.9532788,5.131598949432373,0.000285661779,994.3555224816
1578506712.000662,5.178982257843018,0.000281020068,977.5042548672
1578506712.0484228,5.22674298286438,0.000282695517,983.5868049168
1578506712.097177,5.275497198104858,0.000283448026,986.3187135904
1578506712.1448221,5.3231422901153564,0.000279822387,973.1561937648
1578506712.1923141,5.370634317398071,0.000284382142,989.7099283168
1578506712.2409027,5.419222831726074,0.000280063599,974.0318898095999
1578506712.2892509,5.467571020126343,0.000282022171,981.1422895984
1578506712.337227,5.515547275543213,0.00028276071,983.8234815839999
1578506712.3844187,5.56273889541626,0.000281060115,977.649641496
1578506712.4330924,5.611412525177002,0.00028228201,982.085609104
1578506712.4811466,5.659466743469238,0.000281216577,978.2176611408
1578506712.529148,5.707468271255493,0.000281597488,979.6005204352001
1578506712.577254,5.7555742263793945,0.000281905755,980.719652952
1578506712.6246092,5.802929401397705,0.00028092321,977.152621584
1578506712.6726446,5.850964784622192,0.000282076187,981.3383892847999
1578506712.7209675,5.899287700653076,0.000281027518,977.5313013471999
1578506712.7686107,5.946930885314941,0.000281393528,978.8600640512001
1578506712.8169181,5.995238304138184,0.000281691551,979.9420067504
1578506712.8651662,6.0434863567352295,0.000280715525,976.3986419599998
1578506712.9132206,6.091540813446045,0.000281873159,980.6013164336
1578506712.9607296,6.139049768447876,0.000280819833,976.7773217232
1578506713.0092065,6.187526702880859,0.00028118398,978.099320992
1578506713.056906,6.235226154327393,0.000281525776,979.3401771904
1578506713.1048102,6.283130407333374,0.000280546024,975.7832855296001
1578506713.1531653,6.3314855098724365,0.000281707384,979.9994868736
1578506713.201083,6.379403114318848,0.000280720182,976.4155487328001
1578506713.2490497,6.427369832992554,0.000281042419,977.5853979376001
1578506713.2972612,6.475581407546997,0.000281470828,979.1406939712001
1578506713.3452454,6.5235655307769775,0.000280419365,975.3234626960001
1578506713.3926692,6.570989370346069,0.00028345827,986.3559034079999
1578506713.4407644,6.619084596633911,0.000279387459,971.5772311535999
1578506713.4889734,6.667293548583984,0.000281119719,977.8660278575999
1578506713.5371351,6.7154552936553955,0.000282360241,982.3696189264001
1578506713.5850923,6.7634124755859375,0.000278780237,969.3727724047999
1578506713.6324403,6.810760498046875,0.000283360481,986.0008902223999
1578506713.6810915,6.859411716461182,0.000279328786,971.3642246944
1578506713.729244,6.907564163208008,0.000280995853,977.4163447312
1578506713.7770488,6.955368995666504,0.000282266177,982.0281289807999
1578506713.8250058,7.003325939178467,0.000273938291,951.7945716464001
1578506713.873259,7.051579236984253,0.000221033581,759.7293124624
1578506713.92101,7.099330186843872,0.000154352747,517.6512127088
1578506713.9691749,7.1474950313568115,0.000100887381,323.55054798239996
1578506714.016483,7.194803237915039,5.9719197e-05,174.09357278880003
1578506714.0652435,7.243563652038574,3.1008385e-05,69.86184090399999
1578506714.1131594,7.291479587554932,1.4941208e-05,11.531561523200004
1578506714.1610932,7.339413404464722,5.685724e-06,-22.0695475904
1578506714.2089436,7.387263774871826,7.570721e-06,-15.226254481599998
1578506714.2566767,7.434996843338013,9.050593e-06,-9.8537271728
1578506714.3048449,7.48316502571106,5.511567e-06,-22.7018071632
1578506714.352339,7.530659198760986,1.0184012e-05,-5.738962835199999
1578506714.401106,7.579426288604736,6.384216e-06,-19.533742233599998
1578506714.448511,7.6268310546875,7.993542e-06,-13.691245123199998
1578506714.4967227,7.6750428676605225,9.370968e-06,-8.690637772800002
1578506714.5446284,7.7229485511779785,5.730428e-06,-21.9072541888
1578506714.5927327,7.771052837371826,1.0383315e-05,-5.015413224
1578506714.6413534,7.819673538208008,6.516464e-06,-19.053629094399998
1578506714.689136,7.8674561977386475,8.131377e-06,-13.190848939199999
1578506714.7366045,7.914924621582031,9.566545e-06,-7.980615031999996
1578506714.785336,7.963656187057495,5.850568e-06,-21.471097932799996
1578506714.8325284,8.01084852218628,1.0507181e-05,-4.565730097600003
1578506714.8806417,8.058961868286133,6.694347e-06,-18.4078426512
1578506714.928624,8.10694408416748,8.082017e-06,-13.370045483199998
1578506714.976921,8.155241250991821,9.682961e-06,-7.557978385599995
1578506715.0249133,8.203233480453491,5.901791e-06,-21.285137953599996
1578506715.073139,8.251459121704102,1.0560267e-05,-4.373006683200003
1578506715.12113,8.299450159072876,6.815419e-06,-17.968302862399998
1578506715.168563,8.346883058547974,8.262694e-06,-12.714115702399997
1578506715.217168,8.395488262176514,9.848736e-06,-6.956148825600003
1578506715.264432,8.442752122879028,5.984679e-06,-20.9842213584
1578506715.3210177,8.499337911605835,1.0612421e-05,-4.183666801599998
1578506715.3691626,8.54748272895813,6.874092e-06,-17.7552964032
1578506715.4169989,8.595319032669067,8.265488e-06,-12.703972364799998
1578506715.4646673,8.642987489700317,9.872019e-06,-6.871622222399999
1578506715.5131028,8.691422939300537,5.956739e-06,-21.0856547344
1578506715.561111,8.739431142807007,1.0698102e-05,-3.8726104991999932
1578506715.6091025,8.78742265701294,6.855465e-06,-17.822919864
1578506715.6566305,8.834950685501099,8.22451e-06,-12.852738895999998
1578506715.7051241,8.88344430923462,1.0130927e-05,-5.9316826191999965
1578506715.7523878,8.930707931518555,5.772337e-06,-21.755107755199997
1578506715.8006196,8.978939771652222,1.0979362e-05,-2.8515241951999997
1578506715.8486779,9.026998043060303,6.829388e-06,-17.9175898048
1578506715.8971574,9.075477600097656,8.258037e-06,-12.731022475199996
1578506715.9448032,9.123123407363892,8.717179e-06,-11.064153358400002
1578506715.9930038,9.171324014663696,7.749535e-06,-14.577088135999997
1578506716.0406337,9.218953847885132,8.897856e-06,-10.408223577599998
1578506716.088906,9.267226219177246,8.000992e-06,-13.664198643199999
1578506716.1371274,9.315447568893433,8.288771e-06,-12.619445761599998
1578506716.1852338,9.363554000854492,8.822419e-06,-10.682090062399993
1578506716.233121,9.411441087722778,7.82311e-06,-14.309981455999996
1578506716.280459,9.458779096603394,8.950941e-06,-10.2155037936
1578506716.328849,9.507169246673584,8.115545e-06,-13.248325431999998
1578506716.3767107,9.555030822753906,8.265488e-06,-12.703972364799998
1578506716.4250624,9.603382587432861,8.839183e-06,-10.6212300368
1578506716.473034,9.65135407447815,7.819384e-06,-14.323508326399999
1578506716.5209892,9.699309349060059,8.992851e-06,-10.063353729600003
1578506716.5692267,9.747546911239624,8.144416e-06,-13.1435121536
1578506716.6172307,9.79555082321167,8.282252e-06,-12.643112339199995
1578506716.665189,9.843509197235107,8.827075e-06,-10.665186919999996
1578506716.7130563,9.891376495361328,7.774681e-06,-14.4857980976
1578506716.7608378,9.939157962799072,8.973293e-06,-10.134357092799995
1578506716.808822,9.987142086029053,8.163974e-06,-13.072508790399997
1578506716.8570287,10.035348892211914,8.342788e-06,-12.4233424448
1578506716.9049928,10.08331298828125,8.909963e-06,-10.364270324799996
1578506716.953117,10.131437063217163,5.850568e-06,-21.471097932799996
1578506717.0003006,10.1786208152771,1.1060387e-05,-2.557371035199999
1578506717.048715,10.227035284042358,7.131137e-06,-16.8221202352
1578506717.0966663,10.274986505508423,1.1560507e-05,-0.7417353872000021
1578506717.1452243,10.3235445022583,6.9838017e-05,210.8289369168
1578506717.1931274,10.371447563171387,0.000111324713,361.4422380752
1578506717.2412653,10.419585466384888,0.000159765594,537.3020124576
1578506717.288941,10.46726107597351,0.000196940266,672.2609416864
1578506717.3364573,10.514777421951294,0.000235470943,812.1427114672
1578506717.3849094,10.56322956085205,0.000268927775,933.60439436
1578506717.4331052,10.611425399780273,0.000282336958,982.2850923232002
1578506717.481073,10.659393072128296,0.000289008953,1006.5071029711999
1578506717.5290143,10.707334518432617,0.000284848735,991.403847544
1578506717.5772297,10.755549907684326,0.000285726041,994.5888192463999
1578506717.624877,10.803197145462036,0.000287884846,1002.4261449184
1578506717.6726468,10.850966930389404,0.000283100642,985.0575707168
1578506717.7206562,10.89897632598877,0.000288244337,1003.7312410448001
1578506717.7690916,10.94741177558899,0.000284358859,989.6254017136
1578506717.8167055,10.995025634765625,0.000285252929,992.8712334416
1578506717.8652203,11.043540477752686,0.000287593342,1001.3678687967999
1578506717.912269,11.09058928489685,0.000282857567,984.1751112367999
1578506717.960527,11.13884711265564,0.000288033858,1002.9671180832001
1578506718.0084786,11.186798810958862,0.00028519053,992.644700112
1578506718.057211,11.235531091690063,0.000285296701,993.0301433104
1578506718.1052217,11.283541917800903,0.00028588064,995.150075456
1578506718.152422,11.330742120742798,0.000284709968,990.9000678272
1578506718.2010684,11.379388570785522,0.000285834074,994.9810222495998
1578506718.2492218,11.427541971206665,0.00028507784,992.2355903360001
1578506718.2963436,11.474663734436035,0.000285143964,992.4756469056001
1578506718.344453,11.522773265838623,0.000285698101,994.4873858704
1578506718.392984,11.571304082870483,0.000284587033,990.4537646032002
1578506718.4408684,11.6191885471344,0.000285689719,994.4569558576
1578506718.4886367,11.666956901550293,0.000284938142,991.7284307168
1578506718.53722,11.715540170669556,0.000285019167,992.0225838767999
1578506718.585158,11.76347827911377,0.000285616145,994.1898528080001
1578506718.6324112,11.810731410980225,0.000284498557,990.1325613327999
1578506718.6810634,11.859383583068848,0.000285613351,994.1797094704
1578506718.7291434,11.907463550567627,0.000284070149,988.5772689296
1578506718.7764401,11.954760313034058,0.000284728594,990.9676876576
1578506718.8250213,12.003341436386108,0.00028719753,999.9309129119999
1578506718.8729029,12.051223039627075,0.000282409601,982.5488154704001
1578506718.920695,12.099015235900879,0.000259647146,899.9119988384
1578506718.9692204,12.14754056930542,0.000194657594,663.9739292576
1578506719.0165288,12.194849014282227,0.00013603922,451.165784288
1578506719.0651238,12.243443965911865,8.6919405e-05,272.84120791199996
1578506719.1130977,12.291417837142944,4.5460649e-05,122.3293401296
1578506719.1612196,12.339539766311646,6.504357e-06,-19.0975823472
1578506719.209148,12.387468099594116,-4.4182874e-05,-203.11250576960003
1578506719.2562432,12.434563398361206,-8.7569468e-05,-360.6231966272
1578506719.3048708,12.483191013336182,-0.000123151578,-489.8004887712
1578506719.3523757,12.530695915222168,-0.00016412884,-638.564340736
1578506719.4010887,12.579408884048462,-0.000175498426,-679.8404857504
1578506719.4492183,12.627538442611694,-0.000177047215,-685.4632093360001
1578506719.4971132,12.67543339729309,-0.000176497735,-683.468377144
1578506719.5452201,12.723540306091309,-0.000175430439,-679.5936657456
1578506719.5925407,12.77086091041565,-0.000176269561,-682.6400142544001
1578506719.6411061,12.81942629814148,-0.000174984336,-677.9741334144001
1578506719.6886153,12.86693549156189,-0.000175503083,-679.8573925232
1578506719.7372146,12.915534734725952,-0.000175338238,-679.2589392352
1578506719.7850585,12.963378667831421,-0.000174559653,-676.4323642512
1578506719.8332236,13.01154375076294,-0.000175543129,-680.0027755216
1578506719.881021,13.059341192245483,-0.000174320303,-675.5634280112
1578506719.9287255,13.107045650482178,-0.000174948014,-677.8422700256
1578506719.9771373,13.155457496643066,-0.000174850225,-677.48725684
1578506720.0245962,13.202916383743286,-0.000174087472,-674.7181583488
1578506720.0726423,13.250962495803833,-0.000175197609,-678.7483997136
1578506720.1211019,13.299422025680542,-0.000173977576,-674.3191919104
1578506720.1692126,13.347532749176025,-0.000174629502,-676.6859440608
1578506720.216267,13.394587278366089,-0.000174922869,-677.7509836176
1578506720.26425,13.442570209503174,-0.000172047876,-667.3136090304
1578506720.3129082,13.491228342056274,-0.000177064911,-685.5274528944
1578506720.3607256,13.539045810699463,-0.000171765685,-666.289142824
1578506720.4084566,13.586776733398438,-0.000175116584,-678.4542465536
1578506720.4566221,13.634942293167114,-0.000174633227,-676.6994673008
1578506720.5050066,13.683326721191406,-0.000171809457,-666.4480526928
1578506720.5523453,13.730665445327759,-0.000177067704,-685.5375926016
1578506720.6011207,13.779440879821777,-0.000171580352,-665.6163099008
1578506720.649213,13.82753324508667,-0.000174938701,-677.8084601104
1578506720.697106,13.875426054000854,-0.000174526125,-676.3106442000001
