Time, Time Since Begin, V/V Raw Data, Force 
1578506405.552886,0.24397802352905273,-0.000274898484,-1040.7024563136
1578506405.5934486,0.28454065322875977,-0.00027651526,-1046.571999904
1578506405.6335678,0.3246598243713379,-0.000277971849,-1051.8600006095999
1578506405.6813395,0.37243151664733887,-0.00027909968,-1055.954478272
1578506405.7210915,0.4121835231781006,-0.000278980471,-1055.5217019184
1578506405.7615108,0.4526028633117676,-0.000278413296,-1053.4626297983998
1578506405.801187,0.492279052734375,-0.000276811421,-1047.6471827984
1578506405.8488612,0.5399532318115234,-0.000275420956,-1042.5992386624
1578506405.8893256,0.5804176330566406,-0.000274159946,-1038.0212679584
1578506405.9288635,0.6199555397033691,-0.000274264254,-1038.3999477216
1578506405.9694467,0.6605386734008789,-0.000274678692,-1039.9045234368
1578506406.0177243,0.7088162899017334,-0.000276327133,-1045.8890236431998
1578506406.056751,0.7478430271148682,-0.000277728774,-1050.9775411295998
1578506406.0969338,0.7880258560180664,-0.000278996304,-1055.5791820415998
1578506406.1372333,0.8283252716064453,-0.000278995372,-1055.5757985088
1578506406.1856565,0.8767485618591309,-0.000278560445,-1053.9968395279998
1578506406.225337,0.9164290428161621,-0.000276920386,-1048.0427693344
1578506406.2647595,0.9558515548706055,-0.000275530852,-1042.9982051008
1578506406.3052044,0.9962964057922363,-0.000274227001,-1038.2647044304
1578506406.3531797,1.04427170753479,-0.000274183229,-1038.1057945616
1578506406.393156,1.0842480659484863,-0.000274549238,-1039.4345536352
1578506406.433136,1.1242280006408691,-0.000276165083,-1045.3007173232
1578506406.4731133,1.1642053127288818,-0.000277550891,-1050.3317546864
1578506406.521085,1.212177038192749,-0.000278982334,-1055.5284653536
1578506406.5610614,1.2521533966064453,-0.000279013067,-1055.6400384367998
1578506406.6010423,1.2921342849731445,-0.000278576277,-1054.0543160208
1578506406.6410172,1.3321092128753662,-0.000277004205,-1048.347065832
1578506406.6889915,1.3800835609436035,-0.00027561374,-1043.299121696
1578506406.7294638,1.420555830001831,-0.000274283811,-1038.4709474544
1578506406.7694252,1.460517168045044,-0.000274090096,-1037.7676845183998
1578506406.8094003,1.5004923343658447,-0.000274525955,-1039.3500270319998
1578506406.8573735,1.5484654903411865,-0.000276071951,-1044.9626109104
1578506406.89737,1.5884621143341064,-0.000277379528,-1049.7096384512001
1578506406.9373288,1.6284208297729492,-0.000278806314,-1054.8894423456
1578506406.9773066,1.6683986186981201,-0.000279030763,-1055.7042819951998
1578506407.0252788,1.7163708209991455,-0.000278677791,-1054.4228524464
1578506407.0652564,1.7563483715057373,-0.000274925493,-1040.8005097872
1578506407.1132889,1.8043808937072754,-0.000276594423,-1046.8593932592
1578506407.1614468,1.852538824081421,-0.000278070569,-1052.2183936976
1578506407.2089264,1.9000184535980225,-0.000274220482,-1038.2410378528
1578506407.257514,1.948606014251709,-0.000279018655,-1055.660325112
1578506407.30566,1.9967520236968994,-0.000274961814,-1040.9323695455998
1578506407.3535843,2.0446763038635254,-0.000276523642,-1046.6024299168
1578506407.4015677,2.0926597118377686,-0.000278103165,-1052.336730216
1578506407.4490242,2.1401162147521973,-0.000274178572,-1038.0888877888
1578506407.4975905,2.1886825561523438,-0.000278994441,-1055.5724186063999
1578506407.5451453,2.2362372875213623,-0.000275054947,-1041.2704795888
1578506407.593251,2.2843430042266846,-0.000276421197,-1046.2305135887998
1578506407.6414738,2.3325657844543457,-0.000278208405,-1052.718793512
1578506407.6895578,2.3806498050689697,-0.000274196267,-1038.1531277167999
1578506407.7376227,2.4287147521972656,-0.000278966501,-1055.4709852304
1578506407.7856457,2.4767377376556396,-0.000275166705,-1041.6762058319998
1578506407.8336878,2.524779796600342,-0.000276334584,-1045.9160737536
1578506407.8811183,2.5722103118896484,-0.000278220512,-1052.7627467647999
1578506407.9288151,2.6199071407318115,-0.000273911282,-1037.1185181728
1578506407.9769537,2.66804575920105,-0.000279194675,-1056.2993481199999
1578506408.0256608,2.716752767562866,-0.000275173225,-1041.69987604
1578506408.0731432,2.764235258102417,-0.00027633179,-1045.9059304159998
1578506408.1215184,2.812610387802124,-0.000276839361,-1047.7486161744
1578506408.1696613,2.860753297805786,-0.000275840051,-1044.1207211504
1578506408.2171597,2.9082517623901367,-0.000276919454,-1048.0393858016
1578506408.2648141,2.9559061527252197,-0.000276206993,-1045.4528673872
1578506408.3130858,3.0041778087615967,-0.000276309438,-1045.8247837152
1578506408.3616626,3.0527546405792236,-0.000276857987,-1047.8162360048
1578506408.4095547,3.100646734237671,-0.000275854021,-1044.1714378384
1578506408.457663,3.1487550735473633,-0.000276952982,-1048.1611058528
1578506408.5050883,3.1961803436279297,-0.000276196748,-1045.4156739392
1578506408.553202,3.2442939281463623,-0.000276265666,-1045.6658738463998
1578506408.6010027,3.2920947074890137,-0.00027689524,-1047.951479296
1578506408.6495678,3.3406598567962646,-0.000275788829,-1043.9347648016
1578506408.6968846,3.38797664642334,-0.000276924111,-1048.0562925744
1578506408.7449298,3.4360218048095703,-0.000276238658,-1045.5678240032
1578506408.7931502,3.4842422008514404,-0.000276236795,-1045.561060568
1578506408.8412254,3.5323173999786377,-0.000276933424,-1048.0901024896
1578506408.889272,3.5803639888763428,-0.000275813974,-1044.0260512096
1578506408.9376643,3.628756284713745,-0.000276918523,-1048.0360058991998
1578506408.9856832,3.6767752170562744,-0.00027626846,-1045.6760171839999
1578506409.0332005,3.724292516708374,-0.00027630385,-1045.80449704
1578506409.0813196,3.772411584854126,-0.000276899897,-1047.9683860687999
1578506409.1292093,3.8203012943267822,-0.000275848433,-1044.1511511632
1578506409.1776242,3.868716239929199,-0.000276914798,-1048.0224826592
1578506409.2256026,3.9166946411132812,-0.000276266597,-1045.6692537488
1578506409.2735577,3.9646496772766113,-0.000276197679,-1045.4190538415999
1578506409.3212433,4.012335300445557,-0.000276907347,-1047.9954325488
1578506409.368712,4.0598039627075195,-0.000275720842,-1043.6879447968001
1578506409.417667,4.108758926391602,-0.000276825391,-1047.6978994863998
1578506409.465067,4.156158924102783,-0.000276206061,-1045.4494838544
1578506409.5134108,4.204502820968628,-0.000276156701,-1045.2702873104001
1578506409.5615835,4.252675533294678,-0.000276833773,-1047.7283294991998
1578506409.6093154,4.300407409667969,-0.000275785103,-1043.9212379311998
1578506409.6576288,4.3487207889556885,-0.000276771374,-1047.5017961696
1578506409.705343,4.396435022354126,-0.000276223756,-1045.5137237824
1578506409.7534547,4.444546699523926,-0.000276103616,-1045.0775675264001
1578506409.8016827,4.492774724960327,-0.000276866369,-1047.8466660176
1578506409.8492355,4.540327548980713,-0.000275773928,-1043.8806682112001
1578506409.8973413,4.588433265686035,-0.00027681794,-1047.670849376
1578506409.9455702,4.636662244796753,-0.000276288949,-1045.7504004496
1578506409.9934628,4.684554815292358,-0.00027612038,-1045.138427552
1578506410.0414195,4.732511520385742,-0.000276856124,-1047.8094725696
1578506410.089564,4.780656099319458,-0.000275767408,-1043.8569980032
1578506410.1376674,4.828759431838989,-0.000276759267,-1047.4578429167998
1578506410.1849835,4.876075506210327,-0.000276291743,-1045.7605437871998
1578506410.233669,4.924761056900024,-0.000276073813,-1044.9693707152
1578506410.2816772,4.972769260406494,-0.000276865438,-1047.8432861151998
1578506410.329179,5.020271062850952,-0.000275710598,-1043.6507549792
1578506410.3776748,5.068766832351685,-0.000276708975,-1047.2752628399999
1578506410.4256709,5.11676287651062,-0.000276328065,-1045.892407176
1578506410.4735336,5.164625644683838,-0.000275982544,-1044.6380277376
1578506410.5213108,5.212402820587158,-0.000276899897,-1047.9683860687999
1578506410.5695968,5.260688781738281,-0.000275679864,-1043.5391782656
1578506410.6167076,5.307799577713013,-0.000276716426,-1047.3023129504
1578506410.6651316,5.3562235832214355,-0.000276299194,-1045.7875938976001
1578506410.7136705,5.404762506484985,-0.000275956467,-1044.5433577968
1578506410.761593,5.452685117721558,-0.000276854262,-1047.8027127648002
1578506410.8090017,5.500093698501587,-0.000275666825,-1043.49184148
1578506410.8575685,5.548660516738892,-0.000276700594,-1047.2448364576
1578506410.9048538,5.595945835113525,-0.000276266597,-1045.6692537488
1578506410.9533706,5.644462585449219,-0.00027590245,-1044.34725448
1578506411.0012093,5.692301273345947,-0.000276840292,-1047.7519960768
1578506411.0497246,5.740816593170166,-0.000275696628,-1043.6000382912
1578506411.0970607,5.788152694702148,-0.000276570208,-1046.7714831232
1578506411.145026,5.83611798286438,-0.000276290812,-1045.7571638848
1578506411.1936734,5.884765386581421,-0.000275895,-1044.320208
1578506411.24157,5.932662010192871,-0.000276817009,-1047.6674694736
1578506411.288917,5.980009078979492,-0.000275702216,-1043.6203249664
1578506411.3374462,6.028538227081299,-0.000276599079,-1046.8762964016
1578506411.3855603,6.07665228843689,-0.000276276842,-1045.7064471968
1578506411.433673,6.124764919281006,-0.000275886618,-1044.2897779872
1578506411.4810688,6.172160863876343,-0.00027685333,-1047.799329232
1578506411.5290306,6.220122575759888,-0.000275669619,-1043.5019848176
1578506411.577674,6.268765926361084,-0.000276582316,-1046.8154400064
1578506411.6252663,6.316358327865601,-0.000276304781,-1045.8078769424
1578506411.6736398,6.364731788635254,-0.000275826082,-1044.0700080928
1578506411.7209125,6.412004470825195,-0.000276760198,-1047.4612228192
1578506411.7691858,6.460277795791626,-0.000275672413,-1043.5121281552
1578506411.8175986,6.508690595626831,-0.000276532955,-1046.636239832
1578506411.865295,6.556386947631836,-0.000276269391,-1045.6793970864
1578506411.9129884,6.604080438613892,-0.000275863335,-1044.2052513840001
1578506411.9616792,6.652771234512329,-0.000276789069,-1047.5660360975999
1578506412.0096753,6.700767278671265,-0.000275690109,-1043.5763717135999
1578506412.057292,6.74838399887085,-0.000276511535,-1046.558476664
1578506412.1056464,6.796738386154175,-0.000276302919,-1045.8011171376
1578506412.1536508,6.844742774963379,-0.000275843777,-1044.1342480208
1578506412.201367,6.892458915710449,-0.000276817009,-1047.6674694736
1578506412.249243,6.940335035324097,-0.000275702216,-1043.6203249664
1578506412.2971678,6.988259792327881,-0.000276450999,-1046.3387067695999
1578506412.3455536,7.0366456508636475,-0.000276325271,-1045.8822638384
1578506412.393528,7.084619998931885,-0.000275796279,-1043.9618112816
1578506412.4416,7.132692098617554,-0.000276778825,-1047.52884628
1578506412.4896758,7.180767774581909,-0.000275693834,-1043.5898949536
1578506412.537677,7.228769063949585,-0.000276434235,-1046.277846744
1578506412.5856621,7.276754140853882,-0.000276325271,-1045.8822638384
1578506412.6332765,7.324368476867676,-0.000275744125,-1043.7724714
1578506412.6811225,7.3722145557403564,-0.000276805833,-1047.6268961232
1578506412.728975,7.420067071914673,-0.00027572643,-1043.708231472
1578506412.7770963,7.468188285827637,-0.000276415609,-1046.2102269136
1578506412.8256369,7.51672887802124,-0.000276350416,-1045.9735502464
1578506412.8736827,7.564774751663208,-0.000275731087,-1043.7251382448
1578506412.9210954,7.612187385559082,-0.000276759267,-1047.4578429167998
1578506412.969581,7.660672903060913,-0.000275710598,-1043.6507549792
1578506413.0176773,7.70876932144165,-0.000276393257,-1046.1290802127999
1578506413.0650632,7.756155252456665,-0.000276830047,-1047.7148026288
1578506413.1135716,7.80466365814209,-0.000273961574,-1037.3010982496
1578506413.1696382,7.860730171203613,-0.000278669409,-1054.3924224336
1578506413.2176776,7.908769607543945,-0.000273778103,-1036.6350251311999
1578506413.2656384,7.956730365753174,-0.000277023762,-1048.4180655648
1578506413.3131013,8.004193305969238,-0.000276870094,-1047.8601892575998
1578506413.361537,8.052628993988037,-0.000273996964,-1037.4295781055998
1578506413.4096026,8.10069465637207,-0.000278876163,-1055.1430221552
1578506413.4576375,8.1487295627594,-0.000273918733,-1037.1455682832
1578506413.5057948,8.196886777877808,-0.000276950188,-1048.1509625151998
1578506413.553413,8.244504928588867,-0.00026964955,-1021.64672632
1578506413.6009698,8.292061805725098,-0.000167689286,-651.4901838944
1578506413.6488364,8.339928388595581,-7.8322366e-05,-327.05251752640004
1578506413.6972277,8.388319730758667,3.732741e-06,-29.1596570736
1578506413.7456825,8.436774492263794,8.2220882e-05,255.78369001279998
1578506413.793264,8.484355926513672,0.000153561123,514.7773009392
1578506413.8412836,8.532375574111938,0.000226339325,778.99128548
1578506413.8889015,8.579993486404419,0.000284900889,991.5931874256
1578506413.9376898,8.628781795501709,0.000349507667,1226.1416342768
1578506413.9854102,8.676502227783203,0.000404063612,1424.2015370048
1578506414.03334,8.724431991577148,0.000456389971,1614.1671507183999
1578506414.0812974,8.77238941192627,0.00050552655,1792.5525871200002
1578506414.129738,8.82083010673523,0.000540291891,1918.7646810864003
1578506414.1776817,8.868773698806763,0.000555681996,1974.6369182784
1578506414.2250752,8.916167259216309,0.000552364625,1962.5935345999999
1578506414.2736826,8.96477460861206,0.000551184639,1958.3097134256
1578506414.3212585,9.01235055923462,0.000554130413,1969.0040513551999
1578506414.3696828,9.060774803161621,0.000548901036,1950.0193210944
1578506414.4176865,9.108778476715088,0.00055328384,1965.930652736
1578506414.4656208,9.156712770462036,0.000550638884,1956.3284044736001
1578506414.5131338,9.204225778579712,0.000549744815,1953.0825763760001
1578506414.5609496,9.252041578292847,0.000553078018,1965.1834365471998
1578506414.6094897,9.300581693649292,0.000548026524,1946.8444927296
1578506414.6573896,9.34848165512085,0.000552244484,1962.1573747136001
1578506414.705401,9.396492958068848,0.00055033993,1955.2430818720002
1578506414.7535725,9.444664478302002,0.000550035387,1954.1374689648
1578506414.8016448,9.49273681640625,0.00055074878,1956.727370912
1578506414.849654,9.540745973587036,0.000549591146,1952.5246964383998
1578506414.8967552,9.587847232818604,0.000550469384,1955.7130516736001
1578506414.9448922,9.635984182357788,0.000550054945,1954.2084723280002
1578506414.992699,9.683790922164917,0.000549606979,1952.5821765616
1578506415.0416186,9.732710599899292,0.000550427474,1955.5609016096
1578506415.0896842,9.780776262283325,0.000549287535,1951.422467064
1578506415.1372535,9.828345537185669,0.000550145283,1954.5364354032
1578506415.1848311,9.875923156738281,0.000549751334,1953.1062429536
1578506415.2333274,9.924419403076172,0.000549313612,1951.5171370048
1578506415.2809868,9.972078800201416,0.00055017788,1954.6547755519998
1578506415.3287902,10.019882202148438,0.000549042597,1950.5332441488001
1578506415.377073,10.068165063858032,0.000549846329,1953.4511128016
1578506415.4251735,10.116265535354614,0.000549560413,1952.4131233552
1578506415.473582,10.164674043655396,0.000549075194,1950.6515842975998
1578506415.5215871,10.212679147720337,0.000549993478,1953.9853225312
1578506415.5693696,10.260461568832397,0.000548862852,1949.8806979007998
1578506415.6176462,10.308738231658936,0.000549662858,1952.7850396831998
1578506415.665049,10.356141090393066,0.000549364835,1951.703096984
1578506415.7133172,10.404409170150757,0.000546281226,1940.5083628703999
1578506415.760938,10.452029943466187,0.000551550649,1959.6384761296001
1578506415.8096879,10.500779867172241,0.000546528958,1941.4077291232
1578506415.8571725,10.548264503479004,0.000550490804,1955.7908148416
1578506415.904786,10.59587812423706,0.000549321063,1951.5441871152002
1578506415.9533517,10.64444375038147,0.000547287986,1944.1633043744
1578506416.001583,10.692675113677979,0.000551492907,1959.4288495728
1578506416.0492048,10.740296840667725,0.000546591356,1941.6342588224
1578506416.0969982,10.788090229034424,0.000550285913,1955.0469785552
1578506416.1448965,10.835988521575928,0.000549268909,1951.3548472335997
1578506416.1937006,10.884792566299438,0.000547102652,1943.4904678208002
1578506416.2409923,10.932084321975708,0.000551385805,1959.040026472
1578506416.2891195,10.98021149635315,0.000546501949,1941.3096756496
1578506416.337782,11.028873920440674,0.000550068915,1954.2591890160002
1578506416.3856158,11.07670783996582,0.000549238175,1951.2432705200001
1578506416.4334238,11.124515771865845,0.000546936877,1942.8886382608
1578506416.4816606,11.172752618789673,0.000516558997,1832.6047827088
1578506416.5296893,11.220781326293945,0.000405693427,1430.1184173808
1578506416.5771835,11.268275499343872,0.000301675871,1052.4930820784
1578506416.625465,11.316556930541992,0.000203239731,695.1305194224
1578506416.6736026,11.364694595336914,0.000111643225,362.59856404
1578506416.7208211,11.4119131565094,5.3591095e-05,151.84611128800003
1578506416.769689,11.46078109741211,-2.3412518e-05,-127.7078053472
1578506416.8176901,11.508782148361206,-9.6784905e-05,-394.078919112
1578506416.8655853,11.556677341461182,-0.000169035047,-656.3758346288
1578506416.913074,11.604166030883789,-0.000237579457,-905.2194606928
1578506416.961691,11.652782917022705,-0.000291518867,-1101.0410947568
1578506417.0096521,11.700744152069092,-0.000346457586,-1300.4906202144
1578506417.0571206,11.748212575912476,-0.000387530774,-1449.6027219296002
1578506417.105096,11.796188116073608,-0.000422665849,-1577.1570982096
1578506417.1532764,11.84436845779419,-0.000449676998,-1675.2183735392
1578506417.201613,11.892704963684082,-0.000441185199,-1644.3897464496
1578506417.2487864,11.939878463745117,-0.000442469493,-1649.0522473872
1578506417.296829,11.987920999526978,-0.000440726988,-1642.7262572352001
1578506417.3451617,12.036253690719604,-0.000439957716,-1639.9334921664001
1578506417.393348,12.084439992904663,-0.000440161675,-1640.6739449200002
1578506417.4416995,12.132791519165039,-0.000438582152,-1634.9396446208
1578506417.489763,12.18085503578186,-0.000439289026,-1637.5058799904
1578506417.5372524,12.228344440460205,-0.000438410789,-1634.3175283856
1578506417.585421,12.27651309967041,-0.000438022427,-1632.9076189808002
1578506417.6330142,12.324106216430664,-0.000438478775,-1634.56434476
1578506417.6816566,12.372748613357544,-0.000437160954,-1629.7801274016
1578506417.7296937,12.420785665512085,-0.00043802429,-1632.914382416
1578506417.7777078,12.468799829483032,-0.000437275507,-1630.1960006128002
1578506417.8247895,12.515881538391113,-0.000436923467,-1628.9179545968
1578506417.8728495,12.563941478729248,-0.000437556766,-1631.2170832864
1578506417.9210591,12.612151145935059,-0.000436312519,-1626.6999689776
1578506417.969605,12.660696983337402,-0.000437169336,-1629.8105574144001
1578506418.017694,12.708786010742188,-0.000436553732,-1627.5756686528
1578506418.065279,12.756371021270752,-0.000435455702,-1623.5893805408
1578506418.1135907,12.804682731628418,-0.000438504852,-1634.6590147008
1578506418.1611269,12.852218866348267,-0.000433682464,-1617.1518173056
1578506418.2096334,12.900725364685059,-0.000438043848,-1632.9853857792
1578506418.2576535,12.948745489120483,-0.000435740687,-1624.6239900848
1578506418.3050792,12.996171236038208,-0.000434824266,-1621.2970152864
1578506418.3533573,13.04444932937622,-0.000438034534,-1632.9515722336
1578506418.401073,13.092164993286133,-0.000433268026,-1615.6472415904
1578506418.4494395,13.140531539916992,-0.000437509269,-1631.0446501776
1578506418.4975536,13.188645601272583,-0.00043537654,-1623.3019908160002
1578506418.5457158,13.236807823181152,-0.000434261747,-1619.2548463088
1578506418.5928583,13.283950328826904,-0.000437671319,-1631.6329564976002
1578506418.641192,13.332283973693848,-0.000432863832,-1614.1798556928
1578506418.689709,13.38080096244812,-0.000437062234,-1629.4217343136
1578506418.7368875,13.427979469299316,-0.000435098074,-1622.2910478496
1578506418.7852597,13.476351737976074,-0.000433797017,-1617.5676905168
1578506418.8336537,13.52474570274353,-0.000402746722,-1504.8426995488
1578506418.8810887,13.57218074798584,-0.000293242745,-1107.2994614479999
