Time, Time Since Begin, V/V Raw Data, Force 
1578503304.4513433,0.25322961807250977,-0.000376643613,-1410.0779726352
1578503304.4915547,0.2934410572052002,-0.000376281328,-1408.7627331712001
1578503304.5396962,0.3415825366973877,-0.000375574455,-1406.196501432
1578503304.5788956,0.380781888961792,-0.000374040566,-1400.6278708063999
1578503304.6191192,0.4210054874420166,-0.000372561626,-1395.2587270304
1578503304.6594682,0.46135449409484863,-0.000371697359,-1392.1210921136
1578503304.707424,0.509310245513916,-0.000372047536,-1393.3923746944
1578503304.7475328,0.5494191646575928,-0.00037295185,-1396.67539624
1578503304.7876728,0.5895590782165527,-0.000374450348,-1402.1155433792
1578503304.8276942,0.6295804977416992,-0.000375989825,-1407.70446068
1578503304.8756666,0.6775529384613037,-0.000376791693,-1410.6155622672002
1578503304.9156458,0.7175321578979492,-0.000376450829,-1409.3780896016
1578503304.954976,0.7568624019622803,-0.000375417992,-1405.6284781568
1578503304.995647,0.7975332736968994,-0.000373982824,-1400.4182442495999
1578503305.0430202,0.8449065685272217,-0.000372340903,-1394.4574142512
1578503305.083734,0.8856203556060791,-0.000371638685,-1391.9080820240001
1578503305.123184,0.9250702857971191,-0.000372072682,-1393.4836647328002
1578503305.1630502,0.9649364948272705,-0.000373212621,-1397.6220992784001
1578503305.2110202,1.012906551361084,-0.000374682248,-1402.9574331392
1578503305.250998,1.0528843402862549,-0.000376242213,-1408.6207300752
1578503305.291974,1.093860387802124,-0.000376780517,-1410.5749889168
1578503305.3309531,1.1328394412994385,-0.00037641637,-1409.252989648
1578503305.3789241,1.1808104515075684,-0.000375153497,-1404.6682555088
1578503305.4189029,1.2207891941070557,-0.000373737887,-1399.5290249648
1578503305.4588985,1.2607848644256592,-0.000372112729,-1393.6290513616
1578503305.4988751,1.3007614612579346,-0.000371657312,-1391.9757054848
1578503305.5468636,1.3487498760223389,-0.000372073613,-1393.4870446352
1578503305.5870929,1.388979196548462,-0.000373534858,-1398.7919484832
1578503305.6271708,1.4290571212768555,-0.000374875031,-1403.6573125424
1578503305.6673806,1.4692668914794922,-0.000376389362,-1409.1549398048
1578503305.7153757,1.5172619819641113,-0.000376787968,-1410.6020390272
1578503305.7556393,1.557525634765625,-0.000376370735,-1409.087316344
1578503305.7956834,1.5975697040557861,-0.000374896452,-1403.7350793408
1578503305.835639,1.6375253200531006,-0.000373447314,-1398.4741287456
1578503305.8836985,1.6855847835540771,-0.000372041017,-1393.3687081168
1578503305.9231222,1.725008487701416,-0.000371806324,-1392.5166786496
1578503305.9717236,1.7736098766326904,-0.000375945121,-1407.5421672784
1578503306.019644,1.8215303421020508,-0.000374104828,-1400.8611675712
1578503306.0667753,1.868661642074585,-0.000372913666,-1396.5367730464
1578503306.1149921,1.9168784618377686,-0.000376453623,-1409.3882329392
1578503306.163182,1.9650683403015137,-0.000371673144,-1392.0331819776
1578503306.2111561,2.013042449951172,-0.000376050361,-1407.9242305743999
1578503306.259149,2.061035394668579,-0.000373956747,-1400.3235743088
1578503306.3072193,2.1091055870056152,-0.000373025425,-1396.9425029200002
1578503306.3551378,2.1570241451263428,-0.000376417302,-1409.2563731808002
1578503306.4032524,2.205138683319092,-0.000371376984,-1390.9580027136
1578503306.4512463,2.2531325817108154,-0.000376313925,-1408.88107332
1578503306.499217,2.301103353500366,-0.00037387386,-1400.0226613440002
1578503306.5471725,2.3490588665008545,-0.00037297979,-1396.776829616
1578503306.5951452,2.397031545639038,-0.000376667827,-1410.1658791408001
1578503306.6431162,2.445002555847168,-0.00037142355,-1391.12705592
1578503306.6910903,2.492976665496826,-0.000376421027,-1409.2698964208
1578503306.7390616,2.540947914123535,-0.000373709016,-1399.4242116864
1578503306.7872932,2.589179515838623,-0.000373274088,-1397.8452490752002
1578503306.835265,2.6371512413024902,-0.000376596116,-1409.9055395264
1578503306.8832443,2.6851305961608887,-0.000287408009,-1086.1170358736
1578503306.9312906,2.7331769466400146,-0.000131917186,-521.6231520544
1578503306.9794273,2.78131365776062,-1.3489276e-05,-91.6824675904
1578503307.0271342,2.8290205001831055,7.6781027e-05,236.03484042079998
1578503307.075121,2.877007246017456,0.00019527413,666.212201552
1578503307.1233094,2.9251956939697266,0.000317149796,1108.6696193983998
1578503307.1708798,2.972766160964966,0.000421395525,1487.12331396
1578503307.2196405,3.02152681350708,0.000521509908,1850.5785700032002
1578503307.2673895,3.0692758560180664,0.000607404858,2162.4115964832004
1578503307.3156807,3.1175670623779297,0.000684874132,2443.6560488128002
1578503307.3630145,3.164900779724121,0.000748784281,2675.6754537424004
1578503307.411045,3.2129313945770264,0.000741166994,2648.0216550176
1578503307.4590695,3.260955810546875,0.00074263569,2653.3536089760005
1578503307.5073388,3.309225082397461,0.000741004944,2647.4333486976
1578503307.5549521,3.3568384647369385,0.000737633556,2635.1938617024
1578503307.603168,3.4050543308258057,0.000741941854,2650.8347067616005
1578503307.651196,3.453082323074341,0.000736406073,2630.7376074192002
1578503307.6995308,3.5014171600341797,0.000739711337,2642.7370378448
1578503307.7476008,3.5494871139526367,0.000738583505,2638.642556552
1578503307.7955773,3.597463607788086,0.000735879876,2628.8273018304003
1578503307.8436842,3.6455705165863037,0.000740498304,2645.5940428416
1578503307.8907518,3.6926381587982178,0.000735293142,2626.6972227168003
1578503307.9393954,3.741281747817993,0.00073862914,2638.8082298560003
1578503307.9873996,3.789285898208618,0.000737563707,2634.9402818928
1578503308.0349336,3.836819887161255,0.000735315494,2626.7783694176005
1578503308.0831409,3.8850271701812744,0.000739381649,2641.5401385296004
1578503308.1316893,3.9335756301879883,0.000734482892,2623.7556911168
1578503308.1792526,3.9811389446258545,0.000738058239,2636.7356308656003
1578503308.2280297,4.029916048049927,0.000736841932,2632.3199499328002
1578503308.27485,4.076736211776733,0.000734637491,2624.3169473264
1578503308.323365,4.125251293182373,0.000739130192,2640.6272490368005
1578503308.3713186,4.1732048988342285,0.000733887777,2621.5951856208
1578503308.4189913,4.220877647399902,0.000737769529,2635.6874980816006
1578503308.4669242,4.268810510635376,0.000736360438,2630.5719341152003
1578503308.514945,4.316831350326538,0.000734571368,2624.0768943872004
1578503308.5638456,4.365731954574585,0.000736702234,2631.8127903136005
1578503308.6115375,4.413423776626587,0.000735495239,2627.4309156656
1578503308.6596322,4.4615185260772705,0.000736384653,2630.6598442512
1578503308.7076852,4.509571552276611,0.000735973939,2629.1687881456005
1578503308.7556849,4.557571172714233,0.00073559396,2627.789312384
1578503308.8027802,4.604666471481323,0.000736366957,2630.5956006928
1578503308.8512576,4.653143882751465,0.000735254027,2626.5552196208
1578503308.8997242,4.701610565185547,0.000736093149,2629.6015681296003
1578503308.9473333,4.749219655990601,0.000735679641,2628.1003686864
1578503308.9954014,4.797287702560425,0.000734064728,2622.2375885312003
1578503309.04287,4.844756364822388,0.00073801633,2636.583484432
1578503309.0916753,4.893561601638794,0.000732717104,2617.3451743616006
1578503309.1391263,4.941012620925903,0.000737507828,2634.7374187712003
1578503309.1874433,4.98932957649231,0.000735168345,2626.2441596880003
1578503309.2356164,5.037502765655518,0.000734090805,2622.3322584720004
1578503309.2835057,5.085391998291016,0.000737769529,2635.6874980816006
1578503309.3308318,5.132718086242676,0.000732452609,2616.3849517136005
1578503309.378752,5.180638313293457,0.000737487338,2634.6630318752004
1578503309.4270434,5.228929758071899,0.000734792091,2624.8782071664004
1578503309.475315,5.277201414108276,0.000734047033,2622.1733486032003
1578503309.5228913,5.324777603149414,0.000737512484,2634.7543219136
1578503309.571364,5.373250246047974,0.000732212327,2615.5126319408
1578503309.6189857,5.42087197303772,0.000737373717,2634.2505421968003
1578503309.667163,5.4690492153167725,0.000734447502,2623.6272112608003
1578503309.715043,5.516929388046265,0.000734083354,2622.3052083616
1578503309.7633462,5.565232515335083,0.00073738955,2634.3080223200004
1578503309.8111784,5.613064765930176,0.000732108951,2615.1373357104003
1578503309.8591506,5.661036968231201,0.00073732622,2634.0781090880005
1578503309.907116,5.709002256393433,0.000734195113,2622.7109382352
1578503309.9548998,5.756786108016968,0.000664481893,2369.6240643472
1578503310.0029395,5.804825782775879,0.000483674929,1713.2224622416
1578503310.0508425,5.852728843688965,0.000304035842,1061.0607207968
1578503310.0992703,5.901156663894653,0.000150814652,504.80651262080005
1578503310.1475232,5.949409484863281,2.7813017e-05,58.2613769168
1578503310.1951132,5.996999502182007,-5.069375e-05,-226.74959
1578503310.2440126,6.045898914337158,-0.000158102252,-616.6854156608
1578503310.2912931,6.09317946434021,-0.000265216455,-1005.552818232
1578503310.339345,6.141231298446655,-0.0002961969,-1118.02422576
1578503310.387339,6.189225435256958,-0.000293155201,-1106.9816417104
1578503310.4356263,6.237512588500977,-0.000291748904,-1101.8762210816
1578503310.4835944,6.285480737686157,-0.000290326774,-1096.7133203296
1578503310.5314987,6.333384990692139,-0.000290856697,-1098.6371527888
1578503310.5794709,6.381357192993164,-0.000289374962,-1093.2578620448
1578503310.6275625,6.429448843002319,-0.000289754011,-1094.6339615344
1578503310.6751223,6.477008581161499,-0.000289401039,-1093.3525319856
1578503310.7235858,6.525472164154053,-0.000288643874,-1090.6037201696001
1578503310.770913,6.572799205780029,-0.0002894504,-1093.53173216
1578503310.8196037,6.621490001678467,-0.000288256444,-1089.1971942976
1578503310.8670394,6.668925762176514,-0.00028883107,-1091.2833165280001
1578503310.91515,6.717036247253418,-0.000288744457,-1090.9688766928
1578503310.9631555,6.765041828155518,-0.000286236405,-1081.863644712
1578503311.0113635,6.813249826431274,-0.00029088743,-1098.748725872
1578503311.0596237,6.8615100383758545,-0.000285424292,-1078.9153496768001
1578503311.1068482,6.908734560012817,-0.000289478339,-1093.6331619056
1578503311.1556146,6.95750093460083,-0.000288122334,-1088.7103213536
1578503311.2029612,7.004847526550293,-0.000286131166,-1081.4815850464
1578503311.2512596,7.053145885467529,-0.000290173106,-1096.1554440224002
1578503311.2992158,7.101102113723755,-0.000285268761,-1078.3507099344
1578503311.3474524,7.149338722229004,-0.000289088115,-1092.216492696
1578503311.395018,7.196904420852661,-0.000287748873,-1087.3545085392
1578503311.44375,7.245636224746704,-0.000285735354,-1080.0446291616001
1578503311.4907506,7.292636871337891,-0.000290078111,-1095.8105741744
1578503311.5388231,7.340709447860718,-0.000284686685,-1076.237541224
1578503311.587653,7.3895392417907715,-0.000289002433,-1091.9054327632
1578503311.6348462,7.436732530593872,-0.000287319534,-1085.7958362336
1578503311.6830275,7.4849138259887695,-0.000285827555,-1080.379355672
1578503311.7310894,7.532975673675537,-0.000181376003,-701.1784412912
1578503311.7789235,7.580809831619263,-3.3501536e-05,-164.3349762944
1578503311.8269346,7.628820896148682,4.5310706e-05,121.78498706240002
1578503311.8749366,7.676822900772095,0.000171624124,580.3532197696
1578503311.9231699,7.725056171417236,0.000301352702,1051.3198493408001
1578503311.9716566,7.773542881011963,0.000414761715,1463.039930136
1578503312.0189066,7.82079291343689,0.000525689684,1865.7528287935997
1578503312.0670643,7.868950605392456,0.000618143938,2201.3987525152
1578503312.1152077,7.917093992233276,0.000703940168,2512.8733859072004
1578503312.1634374,7.9653236865997314,0.000753910281,2694.2848841424
1578503312.2111866,8.013072967529297,0.00074684713,2668.6428207520003
1578503312.2594414,8.061327695846558,0.00075060036,2682.2685469440003
1578503312.3068244,8.108710765838623,0.000744927675,2661.67443132
1578503312.355606,8.157492399215698,0.000746897422,2668.8254008288004
1578503312.4031036,8.204989910125732,0.000747140497,2669.7078603088003
1578503312.4516535,8.253539800643921,0.000743267126,2655.6459742304
1578503312.499236,8.301122426986694,0.00074783992,2672.2470455680004
1578503312.547474,8.349360227584839,0.000743230805,2655.5141144720005
1578503312.5956037,8.39749002456665,0.000745404512,2663.4055403648003
1578503312.6430175,8.44490385055542,0.000745023601,2662.0226810704003
1578503312.6909308,8.492817163467407,0.000744054094,2658.5029828576003
1578503312.739609,8.541495323181152,0.000745024532,2662.0260609728
1578503312.7875383,8.58942461013794,0.000743870623,2657.8369097392
1578503312.8350089,8.636895179748535,0.000744272023,2659.2941522992005
1578503312.8831255,8.685011863708496,0.000744254328,2659.2299123712
1578503312.9315395,8.733425855636597,0.000743384473,2656.0719907792004
1578503312.9789784,8.780864715576172,0.000744400546,2659.7607421984003
1578503313.0273669,8.829253196716309,0.000743289478,2655.7271209312003
1578503313.0751245,8.877010822296143,0.00074379798,2657.573186592
1578503313.1234913,8.925377607345581,0.000743721612,2657.2959402048
1578503313.1715543,8.973440647125244,0.000742926262,2654.4085015648
1578503313.2196438,9.021530151367188,0.000746113248,2665.9785355392
1578503313.2671893,9.069075584411621,0.000740791671,2646.6590823984
1578503313.3156388,9.117525100708008,0.000744139776,2658.8140427904004
1578503313.3634431,9.165329456329346,0.000743813813,2657.6306667152003
1578503313.4107513,9.212637662887573,0.000740879215,2646.9769021360003
1578503313.4591038,9.260990142822266,0.000745891593,2665.1738392272
1578503313.5071716,9.30905795097351,0.000740560703,2645.8205761712
1578503313.5554628,9.357349157333374,0.000743977726,2658.2257364704
1578503313.6029394,9.404825687408447,0.000743367709,2656.0111307536
1578503313.6516035,9.453489780426025,0.000740686432,2646.2770227328
1578503313.6990454,9.500931739807129,0.000745571218,2664.0107498272
1578503313.7468987,9.548784971237183,0.000740150921,2644.3329035984
1578503313.7955008,9.597387075424194,0.000743959099,2658.1581130096
1578503313.8434968,9.64538311958313,0.000743069686,2654.9291880544
1578503313.8907983,9.692684650421143,0.000740512274,2645.6447595296004
1578503313.939635,9.74152135848999,0.00074536819,2663.2736769760004
1578503313.9870698,9.78895616531372,0.000739898533,2643.4166342032004
1578503314.0354314,9.837317705154419,0.000743937679,2658.0803498416
1578503314.0833468,9.885233163833618,0.000742784701,2653.8945785104
1578503314.1316009,9.933487176895142,0.000651050359,2320.8622233136
1578503314.1795843,9.981470584869385,0.000470316969,1664.7277242576
1578503314.2282608,10.030147075653076,0.00029072538,1012.7384195519999
1578503314.275107,10.076993227005005,0.000138992444,461.8871686975999
1578503314.322819,10.12470531463623,2.3669563e-05,43.2189815152
1578503314.3708947,10.172780990600586,-5.9776008e-05,-259.7218194432
1578503314.4189444,10.22083067893982,-0.000166309066,-646.4794332064
1578503314.467172,10.269058227539062,-0.000273376703,-1035.1777825712
1578503314.5151815,10.317067861557007,-0.000351387076,-1318.3866407104001
1578503314.5633035,10.365189790725708,-0.000418741256,-1562.9092557824
1578503314.6108131,10.412699460983276,-0.000425274484,-1586.6274867136
1578503314.6586468,10.460533142089844,-0.000419902615,-1567.1254534959999
1578503314.7071276,10.509013891220093,-0.000419684686,-1566.3342840544
1578503314.755594,10.557480335235596,-0.000418020412,-1560.2923037248
1578503314.803578,10.605464220046997,-0.000417717732,-1559.1934542528002
1578503314.8510993,10.652985572814941,-0.000417646021,-1558.9331146384
1578503314.8995302,10.701416492462158,-0.000416415744,-1554.4667170176
1578503314.9474964,10.749382734298706,-0.00041725859,-1557.526585136
1578503314.9956164,10.797502756118774,-0.000416093506,-1553.2968641824
1578503315.042777,10.844663381576538,-0.000416248105,-1553.858120392
1578503315.0907423,10.89262866973877,-0.000416341238,-1554.1962304352
1578503315.1388052,10.940691471099854,-0.000415319577,-1550.4871923408
1578503315.1870725,10.988958835601807,-0.000416303985,-1554.060987144
1578503315.2352939,11.037180185317993,-0.000415186398,-1550.0036992992
1578503315.2828324,11.084718704223633,-0.000415519811,-1551.2141218544
1578503315.3308883,11.132774591445923,-0.000416564755,-1555.007686552
1578503315.3789675,11.180853843688965,-0.000412767753,-1541.2230504912
1578503315.427372,11.229258298873901,-0.000418049283,-1560.3971170032
1578503315.4753866,11.277272939682007,-0.000412761234,-1541.1993839135998
1578503315.5233383,11.32522463798523,-0.000415490009,-1551.1059286736
1578503315.5711915,11.373077869415283,-0.000415911898,-1552.6375544992002
1578503315.619006,11.420892238616943,-0.000412366353,-1539.7658079312
1578503315.667286,11.469172239303589,-0.000417608768,-1558.7978713472
1578503315.71523,11.51711630821228,-0.000412557274,-1540.4589275296
1578503315.763204,11.565090417861938,-0.000415097922,-1549.6824960288
1578503315.8116121,11.613498449325562,-0.000415471382,-1551.0383052128
1578503315.8589585,11.660844802856445,-0.000412220135,-1539.234978104
1578503315.9076219,11.709508180618286,-0.000417076051,-1556.8638955504
1578503315.954747,11.756633281707764,-0.000412195921,-1539.1470715984
1578503316.0035248,11.805411100387573,-0.000414895825,-1548.94880308
1578503316.0507405,11.85262680053711,-0.000415058807,-1549.5404929328001
1578503316.0988097,11.900696039199829,-0.000394444913,-1474.7038121552
1578503316.1469402,11.948826551437378,-0.000242091715,-921.6007621360001
1578503316.1952643,11.997150659561157,-8.2755461e-05,-343.1464256144
1578503316.2432206,12.045106887817383,9.482726e-06,-8.284911529600002
1578503316.2908695,12.092755794525146,0.000105892308,341.7204349632
1578503316.3391407,12.141026973724365,0.000228111632,785.4254688128
1578503316.3871727,12.189059019088745,0.00033924263,1188.875443952
1578503316.435004,12.236890316009521,0.000447118655,1580.508565112
1578503316.4831223,12.285008668899536,0.000532107428,1889.0518066112
1578503316.531518,12.333404302597046,0.000615001656,2189.9910119424003
1578503316.5792258,12.381112098693848,0.000692476518,2471.2557509472003
1578503316.6272159,12.429102182388306,0.000738965347,2640.0287957488003
1578503316.675515,12.47740125656128,0.000743819401,2657.6509533904
1578503316.722735,12.52462124824524,0.000738371164,2637.8716737856003
1578503316.7717073,12.573593616485596,0.000738274306,2637.5200405024
1578503316.818904,12.620790243148804,0.0007398054,2643.07852416
1578503316.8671975,12.669083833694458,0.000734966248,2625.5104667392
1578503316.9156177,12.717504024505615,0.000739494339,2641.9492483056
1578503316.9630558,12.764942169189453,0.000735482201,2627.3835825104
1578503317.0113602,12.813246488571167,0.000736381859,2630.6497009136
1578503317.0588672,12.860753536224365,0.000738121569,2636.9655440976003
1578503317.1070664,12.908952713012695,0.000733455643,2620.0263663472
1578503317.1552322,12.957118511199951,0.000736484304,2631.0216172416003
1578503317.203499,13.005385398864746,0.000735495239,2627.4309156656
1578503317.2509308,13.052817106246948,0.000735579059,2627.7352157936
1578503317.2991462,13.101032495498657,0.000735878944,2628.8239182976004
1578503317.347751,13.149637222290039,0.000734836794,2625.0404969376
1578503317.394878,13.19676423072815,0.000735842623,2628.6920585392004
1578503317.4437382,13.245624542236328,0.000734850764,2625.0912136256
1578503317.4909244,13.292810678482056,0.00073511526,2626.0514399040003
1578503317.539058,13.340944290161133,0.000735350884,2626.9068492736
1578503317.5871377,13.389024019241333,0.000734378584,2623.3770113536
1578503317.635373,13.437259435653687,0.000735398382,2627.0792860128
1578503317.6831434,13.485029697418213,0.000734422356,2623.5359212224002
1578503317.7312226,13.533108949661255,0.000734859146,2625.1216436384
1578503317.7794743,13.581360578536987,0.000736064278,2629.4967548512004
1578503317.827644,13.629530429840088,0.000732133165,2615.2252422160004
1578503317.8756104,13.677496671676636,0.000737390481,2634.3114022224004
