Time, Time Since Begin, V/V Raw Data, Force 
1578502240.6556492,0.24134588241577148,-0.000281829387,-1065.8644065648
1578502240.7027268,0.2884235382080078,-0.000280512497,-1061.0835691087998
1578502240.7431362,0.32883286476135254,-0.00027905032,-1055.775281728
1578502240.7833517,0.3690483570098877,-0.00027866289,-1054.368755856
1578502240.8236568,0.40935349464416504,-0.000278963707,-1055.4608418928
1578502240.8706746,0.4563713073730469,-0.000280356966,-1060.5189293664
1578502240.9114182,0.497114896774292,-0.000281642191,-1065.1848102064
1578502240.9506853,0.5363819599151611,-0.000283054076,-1070.3105175104
1578502240.99097,0.5766665935516357,-0.000283529051,-1072.0348667504
1578502241.039189,0.6248857975006104,-0.000283273868,-1071.1084503872
1578502241.079406,0.6651027202606201,-0.000281933695,-1066.243086328
1578502241.1195455,0.7052421569824219,-0.000280628912,-1061.5062021248
1578502241.1595714,0.7452681064605713,-0.000279176049,-1056.2317282896
1578502241.2069879,0.7926845550537109,-0.0002786275,-1054.240276
1578502241.2471023,0.832798957824707,-0.000278917141,-1055.2917886864
1578502241.287263,0.8729596138000488,-0.000280104578,-1059.6026599712
1578502241.3274481,0.9131448268890381,-0.000281439163,-1064.4477373552002
1578502241.375588,0.9612846374511719,-0.000282892957,-1069.7255910928
1578502241.4153275,1.0010242462158203,-0.000283524394,-1072.0179599776
1578502241.4548514,1.0405480861663818,-0.000283271074,-1071.0983070496
1578502241.4948335,1.0805301666259766,-0.000282191671,-1067.1796423984001
1578502241.5435898,1.129286527633667,-0.00028082449,-1062.216228496
1578502241.5830207,1.168717384338379,-0.000279318541,-1056.7490312464
1578502241.6231441,1.2088408470153809,-0.000278646126,-1054.3078958304
1578502241.663436,1.2491326332092285,-0.000278939493,-1055.3729353872
1578502241.7112734,1.2969701290130615,-0.000279833563,-1058.6187671152
1578502241.7510538,1.3367505073547363,-0.000281293876,-1063.9202874303999
1578502241.7910662,1.376762866973877,-0.000282682478,-1068.9614681312
1578502241.8313708,1.417067527770996,-0.000283487141,-1071.8827166864
1578502241.879668,1.465364694595337,-0.000283263624,-1071.0712605696
1578502241.9195347,1.5052313804626465,-0.000282447785,-1068.109438664
1578502241.9587493,1.5444459915161133,-0.00028100796,-1062.882297984
1578502241.9987261,1.5844228267669678,-0.000279550441,-1057.5909210064
1578502242.0467713,1.6324679851531982,-0.000278653577,-1054.3349459408
1578502242.0867486,1.672445297241211,-0.000278842635,-1055.0213021040001
1578502242.127651,1.7133476734161377,-0.000279513188,-1057.4556777152
1578502242.1747434,1.7604401111602783,-0.000282529742,-1068.4069753568
1578502242.223588,1.8092846870422363,-0.000281053595,-1063.0479712879999
1578502242.2710767,1.8567733764648438,-0.000279445201,-1057.2088577103998
1578502242.3189745,1.9046711921691895,-0.000283305533,-1071.2234070032
1578502242.3671954,1.9528920650482178,-0.000278660096,-1054.3586125184
1578502242.41548,2.001176595687866,-0.000282326713,-1067.6698988752
1578502242.4626195,2.048316240310669,-0.00028112717,-1063.315077968
1578502242.5105937,2.096290349960327,-0.000279341824,-1056.8335578496
1578502242.5585644,2.144261121749878,-0.000283291563,-1071.1726903152
1578502242.607539,2.1932356357574463,-0.000278685242,-1054.4499025568
1578502242.6555095,2.241206169128418,-0.00028228201,-1067.507609104
1578502242.7034822,2.2891788482666016,-0.000281179324,-1063.5044178496
1578502242.751475,2.337171792984009,-0.000279262662,-1056.5461681248
1578502242.799428,2.385124683380127,-0.000283261761,-1071.0644971344
1578502242.8474028,2.4330995082855225,-0.000278715976,-1054.5614792704
1578502242.895378,2.481074810028076,-0.000282147899,-1067.0207325296
1578502242.943348,2.5290446281433105,-0.000281201676,-1063.5855645503998
1578502242.991371,2.5770676136016846,-0.0002791835,-1056.2587784
1578502243.0395248,2.6252214908599854,-0.000283289701,-1071.1659305104001
1578502243.0876794,2.6733760833740234,-0.000278752297,-1054.6933390288
1578502243.1347485,2.720445156097412,-0.00028211344,-1066.895632576
1578502243.183046,2.768742799758911,-0.000281355344,-1064.1434408576
1578502243.2315946,2.817291259765625,-0.000278952532,-1055.4202721728
1578502243.2791166,2.8648133277893066,-0.000283517875,-1071.9942933999998
1578502243.3270497,2.9127464294433594,-0.000278766267,-1054.7440557168
1578502243.3755968,2.9612934589385986,-0.000282024033,-1066.5710494032
1578502243.4235957,3.0092923641204834,-0.000281290151,-1063.9067641904
1578502243.4716275,3.057324171066284,-0.000279138796,-1056.0964849983998
1578502243.5196545,3.105351209640503,-0.000283307396,-1071.2301704384
1578502243.56758,3.1532766819000244,-0.000278748572,-1054.6798157888
1578502243.6153357,3.2010324001312256,-0.000281996094,-1066.4696196576
1578502243.6631145,3.2488112449645996,-0.00028128922,-1063.9033842879999
1578502243.710737,3.296433687210083,-0.000279090367,-1055.9206683568
1578502243.7593265,3.3450231552124023,-0.000283337198,-1071.3383636192
1578502243.8075988,3.3932955265045166,-0.000278750435,-1054.686579224
1578502243.8555956,3.4412922859191895,-0.000282011926,-1066.5270961504
1578502243.9035568,3.489253520965576,-0.000281274319,-1063.8492876976
1578502243.951501,3.5371975898742676,-0.000279086642,-1055.9071451168
1578502243.999624,3.5853207111358643,-0.000283343717,-1071.3620301967999
1578502244.0469494,3.632646083831787,-0.000278745778,-1054.6696724511999
1578502244.094671,3.6803677082061768,-0.000281970017,-1066.3749497168
1578502244.1430604,3.72875714302063,-0.000281302258,-1063.9507174432
1578502244.1914694,3.7771661281585693,-0.000279161148,-1056.1776316992
1578502244.2388413,3.824537992477417,-0.000281544402,-1064.8297970208
1578502244.2870672,3.8727638721466064,-0.000280480832,-1060.9686124927998
1578502244.3347673,3.920464038848877,-0.000281144865,-1063.379317896
1578502244.3834376,3.9691343307495117,-0.000281108543,-1063.2474545072
1578502244.4313502,4.017046928405762,-0.000280475244,-1060.9483258175999
1578502244.4796355,4.0653321743011475,-0.00028153602,-1064.799367008
1578502244.5271573,4.11285400390625,-0.000280520879,-1061.1139991215998
1578502244.5755281,4.161224842071533,-0.000281116925,-1063.2778845199998
1578502244.6235933,4.209290027618408,-0.000282677822,-1068.9445649888
1578502244.6707904,4.256487131118774,-0.000278953463,-1055.4236520752
1578502244.7188604,4.3045570850372314,-0.000283336267,-1071.3349837168
1578502244.7670996,4.352796316146851,-0.000278807245,-1054.892822248
1578502244.815184,4.400880813598633,-0.000281671062,-1065.2896234848001
1578502244.8631701,4.448866844177246,-0.000281405635,-1064.3260173039998
1578502244.9111216,4.49681830406189,-0.000278893858,-1055.2072620832
1578502244.9595032,4.545199871063232,-0.00028329622,-1071.189597088
1578502245.0068986,4.592595338821411,-0.000278864987,-1055.1024488048
1578502245.0555987,4.641295433044434,-0.000281671993,-1065.2930033871999
1578502245.1030962,4.688792943954468,-0.000281414948,-1064.3598272192
1578502245.1508846,4.736581325531006,-0.000278884545,-1055.173452168
1578502245.1988866,4.784583330154419,-0.000283227302,-1070.9393971808
1578502245.246915,4.832611799240112,-0.000278869644,-1055.1193555776
1578502245.2950559,4.8807525634765625,-0.000281545334,-1064.8331805536
1578502245.3433962,4.929092884063721,-0.000281569548,-1064.9210870591999
1578502245.39154,4.977236747741699,-0.000278557651,-1053.9866961904002
1578502245.439665,5.025361776351929,-0.000283613801,-1072.3425431504
1578502245.4871767,5.07287335395813,-0.000278598629,-1054.1354627215999
1578502245.5356069,5.121303558349609,-0.000281567685,-1064.914323624
1578502245.583622,5.169318675994873,-0.000281628221,-1065.1340935184
1578502245.6307738,5.21647047996521,-0.000278580002,-1054.0678392608
1578502245.6791773,5.26487398147583,-0.000283596106,-1072.2783032224002
1578502245.7272625,5.31295919418335,-0.000278645195,-1054.3045159279998
1578502245.7755969,5.36129355430603,-0.000281395391,-1064.2888274864
1578502245.8234591,5.40915584564209,-0.000281764194,-1065.6277298976
1578502245.8712928,5.456989526748657,-0.000278510153,-1053.8142594511999
1578502245.9193528,5.505049467086792,-0.00028362032,-1072.366209728
1578502245.9676628,5.553359508514404,-0.000276927836,-1048.0698158144
1578502246.015035,5.600731611251831,-0.000200073235,-769.056872344
1578502246.0631778,5.648874521255493,-9.5257536e-05,-388.5339586944
1578502246.1115139,5.6972105503082275,-1.9024126e-05,-111.7761870304
1578502246.1594942,5.745190858840942,3.1773932e-05,72.6410827328
1578502246.2071302,5.792826890945435,0.00010920316,353.740152064
1578502246.2556486,5.841345310211182,0.000187405385,637.645509704
1578502246.3035576,5.889254331588745,0.000265982002,922.9100600608
1578502246.351184,5.936880588531494,0.000338422135,1185.896718904
1578502246.399599,5.98529577255249,0.000372642651,1310.1308801904001
1578502246.4469008,6.032597541809082,0.000378316268,1330.7283793472
1578502246.4951968,6.080893516540527,0.000374828465,1318.066259336
1578502246.5435994,6.129296064376831,0.00037371181,1314.012355024
1578502246.5913727,6.177069425582886,0.000376778655,1325.1462291120001
1578502246.639602,6.225298643112183,0.000371444039,1305.7794391856
1578502246.68682,6.27251672744751,0.000376027077,1322.4177003408
1578502246.7348366,6.320533275604248,0.000373263843,1312.3860556272
1578502246.783055,6.368751764297485,0.000372529961,1309.7217704144
1578502246.8314748,6.417171478271484,0.000375843607,1321.7516308528
1578502246.8796036,6.4653003215789795,0.000370673835,1302.9832905839999
1578502246.9275963,6.513293027877808,0.000375271775,1319.6756519599999
1578502246.9755597,6.561256408691406,0.000372756273,1310.5433734992
1578502247.0235994,6.609296083450317,0.000372082926,1308.0988545504001
1578502247.0711694,6.656866073608398,0.000375021249,1318.7661423696
1578502247.119558,6.705254793167114,0.000370481052,1302.2834111808
1578502247.1673186,6.7530152797698975,0.000374726951,1317.6977229104
1578502247.215564,6.801260709762573,0.000372407958,1309.2788507232
1578502247.2636042,6.849300861358643,0.000371529721,1306.0904991184
1578502247.3113928,6.89708948135376,0.000375020318,1318.7627624672
1578502247.3595989,6.945295572280884,0.000369875692,1300.0857122368
1578502247.4075022,6.993198871612549,0.000374516472,1316.9335999487998
1578502247.4550292,7.040725946426392,0.000372138806,1308.3017213024
1578502247.5034935,7.089190244674683,0.000371194445,1304.873313128
1578502247.5515072,7.137203931808472,0.000374753028,1317.7923928512
1578502247.599598,7.1852946281433105,0.000369558111,1298.9327661744
1578502247.6475735,7.233270168304443,0.0003742259,1315.87870736
1578502247.6956024,7.281299114227295,0.000371991657,1307.7675115728
1578502247.7435088,7.329205513000488,0.000370991416,1304.1362366464
1578502247.7915466,7.377243280410767,0.000374593772,1317.2142298688
1578502247.8389874,7.424684047698975,0.000369428657,1298.4627963728
1578502247.8868628,7.472559452056885,0.000373969786,1314.9489110944
1578502247.9349189,7.520615577697754,0.000371790491,1307.0371985263998
1578502247.983038,7.568734645843506,0.000370725989,1303.1726304656
1578502248.0310943,7.616791009902954,0.000374439172,1316.6529700288
1578502248.0789711,7.664667844772339,0.000369312242,1298.0401633568001
1578502248.127156,7.712852716445923,0.000373784453,1314.2760781712
1578502248.1754751,7.761171817779541,0.000371686183,1306.6585187632
1578502248.2233477,7.809044361114502,0.000370486639,1302.3036942255999
1578502248.271497,7.8571937084198,0.000374285504,1316.0950937216
1578502248.3187814,7.904478073120117,0.000369213521,1297.6817666384
1578502248.367022,7.952718734741211,0.000373651274,1313.7925851296
1578502248.4150722,8.000768899917603,0.000371786766,1307.0236752864
1578502248.4636097,8.049306392669678,0.000370315276,1301.6815779904
1578502248.5110707,8.09676742553711,0.000374086201,1315.3715441104
1578502248.5592327,8.1449294090271,0.00037119817,1304.886836368
1578502248.6074586,8.193155288696289,0.000372062437,1308.0244712847998
1578502248.655589,8.241285800933838,0.000371681526,1306.6416119904
1578502248.7036488,8.289345502853394,0.000371289439,1305.2181793456
1578502248.751298,8.336994647979736,0.00037212763,1308.261147952
1578502248.7995272,8.385223865509033,0.000371084549,1304.4743466896
1578502248.8469813,8.432677984237671,0.000371870585,1307.327971784
1578502248.8951132,8.480809926986694,0.00037167687,1306.624708848
1578502248.9436,8.529296636581421,0.000371155329,1304.7313064016
1578502248.9908621,8.576558828353882,0.000372103415,1308.173237816
1578502249.0390637,8.624760389328003,0.000368867069,1296.4240072976
1578502249.0879269,8.67362356185913,0.00037301518,1311.483309472
1578502249.135513,8.72120976448059,0.000372450799,1309.4343806896
1578502249.1832676,8.768964290618896,0.000369770452,1299.7036489408
1578502249.231362,8.817058801651001,0.000374014489,1315.1112008656
1578502249.2788467,8.864543437957764,0.000368841924,1296.3327208896
1578502249.3276055,8.913302183151245,0.000372804701,1310.7191865103998
1578502249.3756726,8.961369276046753,0.000371527858,1306.0837356832
1578502249.4235008,9.009197473526001,0.000369409099,1298.3917930096
1578502249.471172,9.0568687915802,0.000373878516,1314.6175644864
1578502249.5191233,9.104820013046265,0.000368785113,1296.1264742352
1578502249.5672705,9.15296721458435,0.000372654758,1310.1748334432
1578502249.6154985,9.201195240020752,0.000371703878,1306.7227586912
1578502249.6636019,9.249298572540283,0.00036938861,1298.317409744
1578502249.711683,9.297379732131958,0.000374084339,1315.3647843056
1578502249.7593036,9.345000267028809,0.000368921086,1296.6201106144001
1578502249.8074398,9.393136501312256,0.000372569077,1309.8637771408
1578502249.8554153,9.441112041473389,0.000371628441,1306.4488922064
1578502249.9035628,9.489259481430054,0.000369116664,1297.3301369856001
1578502249.9512289,9.536925554275513,0.000373951159,1314.8812876335999
1578502249.999643,9.585339784622192,0.00036868453,1295.761317712
1578502250.0467463,9.632442951202393,0.000372296199,1308.8731208496
1578502250.094985,9.680681705474854,0.000371603295,1306.3576021679999
1578502250.1431968,9.728893518447876,0.00036895927,1296.758733808
1578502250.1910336,9.776730298995972,0.000373874791,1314.6040412464
1578502250.238801,9.824497699737549,0.000368759036,1296.0318042944
1578502250.2871494,9.872846126556396,0.000372210518,1308.5620645472
1578502250.3356168,9.921313524246216,0.000371799804,1307.0710084416
1578502250.3836038,9.969300508499146,0.000369034708,1297.0326039232
1578502250.431496,10.017192602157593,0.000373846851,1314.5026078704
1578502250.4795144,10.065211057662964,0.000368827023,1296.2786242992
1578502250.5268068,10.11250352859497,0.000372109935,1308.1969080239999
1578502250.5751326,10.160829305648804,0.000371608883,1306.3778888432
1578502250.6236053,10.209301948547363,0.000368891284,1296.5119174336
1578502250.670989,10.256685733795166,0.000373725779,1314.0630680816
1578502250.7189133,10.304610013961792,0.000342194922,1199.5934448287999
1578502250.7673862,10.35308289527893,0.000232233666,800.3901010464
1578502250.8156042,10.40130090713501,0.00012258999,402.33969969599997
1578502250.8634973,10.449193954467773,3.44133e-05,82.22304432
1578502250.9116027,10.497299432754517,-8.575618e-06,-73.8439235872
1578502250.9591632,10.544859886169434,-8.0727972e-05,-335.7858295488
1578502251.0071626,10.592859268188477,-0.000155669637,-607.8540501648
1578502251.055222,10.640918731689453,-0.000229551457,-876.0746094928
1578502251.1034708,10.689167499542236,-0.000295478851,-1115.4174206704001
1578502251.1515985,10.737295150756836,-0.000316488557,-1191.6910573328
1578502251.1996124,10.785309076309204,-0.000319408253,-1202.2907216912
1578502251.2474468,10.833143472671509,-0.000315351412,-1187.5627661248
1578502251.2950234,10.880720138549805,-0.000315115787,-1186.7073531248
1578502251.3434947,10.92919135093689,-0.000317554921,-1195.5623851984
1578502251.3906965,10.976393222808838,-0.000312387012,-1176.8008083648
1578502251.4390874,11.024784088134766,-0.000317169353,-1194.1626191312
1578502251.4870975,11.072794198989868,-0.000313770957,-1181.8250822928
1578502251.5355537,11.12125039100647,-0.000313861296,-1182.1530489984
1578502251.5830998,11.16879653930664,-0.000316523947,-1191.8195371888
1578502251.631445,11.21714162826538,-0.000311825424,-1174.7620192896
1578502251.6793096,11.265006303787231,-0.000316122547,-1190.3622946287999
1578502251.727702,11.313398599624634,-0.000313330442,-1180.2258366367998
1578502251.7753227,11.361019372940063,-0.000313298777,-1180.1108800207999
1578502251.8236265,11.40932321548462,-0.000315849669,-1189.3716383376
1578502251.8713553,11.457051992416382,-0.000311059877,-1171.9827774608
1578502251.919573,11.505269765853882,-0.000315886922,-1189.5068816287999
1578502251.9675062,11.553202867507935,-0.000312848948,-1178.4778208192001
1578502252.0156088,11.601305484771729,-0.000312799588,-1178.2986242752
1578502252.062925,11.648621797561646,-0.000315787271,-1189.1451086384
1578502252.1110861,11.69678282737732,-0.000310817733,-1171.1036978832
1578502252.1595674,11.745264053344727,-0.00031559635,-1188.45198904
1578502252.2075968,11.793293476104736,-0.000312711112,-1177.9774210048001
1578502252.2556682,11.841364860534668,-0.000312578864,-1177.4973078656
1578502252.303573,11.889269590377808,-0.000315225683,-1187.1063195632
1578502252.3512695,11.936966180801392,-0.000310690142,-1170.6404915168
1578502252.399293,11.984989643096924,-0.000315036625,-1186.4199634
1578502252.4467518,12.032448530197144,-0.000312480144,-1177.1389147776
1578502252.4954343,12.081130981445312,-0.000312179327,-1176.0468287408
1578502252.5432365,12.128933191299438,-0.000315192156,-1186.9846031424
1578502252.591111,12.176807641983032,-0.000310328789,-1169.3286355856
1578502252.6394928,12.225189447402954,-0.000314989127,-1186.2475266607998
1578502252.6875818,12.27327847480774,-0.000312381424,-1176.7805216896002
1578502252.7349548,12.320651531219482,-0.00031194184,-1175.184655936
1578502252.7832558,12.368952512741089,-0.000315083191,-1186.5890166064
1578502252.8314447,12.417141437530518,-0.000310143456,-1168.6558026624
1578502252.8793845,12.465081214904785,-0.000314803794,-1185.5746937376
1578502252.927498,12.513194799423218,-0.000312273391,-1176.3883186864
1578502252.975222,12.560918807983398,-0.00031164661,-1174.112852944
1578502253.0227895,12.60848617553711,-0.000313145109,-1179.5530037136
1578502253.0715227,12.657219409942627,-0.000312113203,-1175.8067721712
1578502253.119566,12.705262660980225,-0.000313022174,-1179.1067004896
1578502253.1674836,12.753180265426636,-0.000312534161,-1177.3350180944
1578502253.2149205,12.800617218017578,-0.00031237863,-1176.770378352
1578502253.2636063,12.849303007125854,-0.000313105062,-1179.4076170848
1578502253.31083,12.89652681350708,-0.000312011689,-1175.4382357456
1578502253.35942,12.945116758346558,-0.000314337201,-1183.8807745104
1578502253.4066918,12.992388486862183,-0.000312142074,-1175.9115854496
1578502253.4548066,13.04050326347351,-0.000311335549,-1172.9835770896
1578502253.5031896,13.088886260986328,-0.000314800069,-1185.5611704976
1578502253.5507917,13.136488437652588,-0.000309816562,-1167.4690466848
1578502253.5989962,13.184692859649658,-0.000314290635,-1183.711721304
1578502253.6472108,13.23290753364563,-0.000312091783,-1175.7290090032
1578502253.6956077,13.281304359436035,-0.000311116688,-1172.1890241152
1578502253.7436044,13.329301118850708,-0.000314724632,-1185.2873040128002
1578502253.7914572,13.377153873443604,-0.000309739262,-1167.1884167648
1578502253.8396342,13.425330877304077,-0.000314123929,-1183.1065118416
1578502253.8872147,13.472911357879639,-0.00031216722,-1176.002875488
1578502253.9349747,13.520671367645264,-0.000310917385,-1171.465474504
1578502253.9831762,13.568872928619385,-0.000314696692,-1185.1858706368
1578502254.0306082,13.616304874420166,-0.000309903175,-1167.78348652
1578502254.079584,13.66528058052063,-0.000313756056,-1181.7709857024
1578502254.127622,13.713318586349487,-0.00031221658,-1176.182072032
