Time, Time Since Begin, V/V Raw Data, Force 
1574849582.134335,0.2240891456604004,0.000206113,710.52906
1574849582.3873634,0.47711753845214844,0.000192217529,660.22745498
1574849582.4186113,0.5083653926849365,0.000192156993,660.00831466
1574849582.4653556,0.5551097393035889,0.000192189589,660.12631218
1574849582.5123477,0.6021018028259277,0.000192199834,660.16339908
1574849582.5592241,0.6489782333374023,0.000195956789,673.76357618
1574849582.5904672,0.6802213191986084,0.000207500532,715.55192584
1574849582.637344,0.7270979881286621,0.000210742466,727.28772692
1574849582.6852505,0.7750046253204346,0.000210692175,727.1056735
1574849582.718135,0.8078892230987549,0.000210647471,726.9438450199999
1574849582.7666836,0.8564376831054688,0.000210548751,726.58647862
1574849582.815879,0.9056332111358643,0.000210514292,726.46173704
1574849582.8472617,0.9370157718658447,0.000209972262,724.49958844
1574849582.894127,0.9838809967041016,0.000201207586,692.77146132
1574849582.9253757,1.015129804611206,0.000193024985,663.1504457
1574849582.9722466,1.0620007514953613,0.00019202847,659.5430613999999
1574849583.0191188,1.108872890472412,0.000192125328,659.8936873600001
1574849583.050367,1.1401212215423584,0.000192170963,660.05888606
1574849583.0972323,1.1869864463806152,0.000197221525,678.3419204999999
1574849583.1441054,1.2338595390319824,0.0002078861,716.947682
1574849583.191185,1.2809391021728516,0.000210500322,726.41116564
1574849583.231145,1.3208990097045898,0.000210437924,726.1852848799999
1574849583.2664742,1.3562283515930176,0.000210370868,725.94254216
1574849583.3134794,1.403233528137207,0.000210351311,725.87174582
1574849583.3603425,1.450096607208252,0.000210352242,725.87511604
1574849583.3915956,1.4813497066497803,0.000210424885,726.1380837
1574849583.4384632,1.5282173156738281,0.000207536854,715.68341148
1574849583.4853354,1.575089454650879,0.000197785906,680.3849797199999
1574849583.5165875,1.6063416004180908,0.000191897154,659.06769748
1574849583.563457,1.6532111167907715,0.000191942789,659.23289618
1574849583.604485,1.6942391395568848,0.000191892497,659.05083914
1574849583.656472,1.7462260723114014,0.000191815197,658.7710131399999
1574849583.6964612,1.7862153053283691,0.000191763043,658.58221566
1574849583.732489,1.8222432136535645,0.00019178167,658.6496453999999
1574849583.7638702,1.8536243438720703,0.000195904635,673.5747787
1574849583.818891,1.9086451530456543,0.000201258808,692.95688496
1574849583.8502688,1.9400229454040527,0.00020137988,693.3951655999999
1574849583.8971384,1.9868924617767334,0.000201235525,692.8726005
1574849583.9596329,2.049386978149414,0.000201199204,692.74111848
1574849584.0065007,2.096254825592041,0.000201317482,693.16928484
1574849584.0545704,2.144324541091919,0.000201132149,692.49837938
1574849584.1025577,2.1923117637634277,0.000194554217,668.6862655399999
1574849584.149088,2.238842010498047,0.000192391686,660.85790332
1574849584.1981573,2.2879114151000977,0.000192465261,661.12424482
1574849584.2459955,2.335749626159668,0.000192546286,661.41755532
1574849584.2928646,2.3826186656951904,0.000192360021,660.74327602
1574849584.3397348,2.4294888973236084,0.000192594714,661.5928646799999
1574849584.3866107,2.476364850997925,0.000200392678,689.82149436
1574849584.4333925,2.523146629333496,0.000208774582,720.16398684
1574849584.4803324,2.5700864791870117,0.000210283324,725.62563288
1574849584.5329237,2.622677803039551,0.000210111029,725.0019249799999
1574849584.5821142,2.671868324279785,0.000210274942,725.5952900399999
1574849584.6290867,2.7188408374786377,0.000210121274,725.03901188
1574849584.6771274,2.7668814659118652,0.000209921971,724.31753502
1574849584.727467,2.817221164703369,0.000200631097,690.6845711399999
1574849584.7719946,2.861748695373535,0.00019186642,658.9564404
1574849584.8188682,2.9086222648620605,0.000191976316,659.35426392
1574849584.8656063,2.9553604125976562,0.000191896223,659.0643272599999
1574849584.91248,3.0022342205047607,0.000191913918,659.12838316
1574849584.9594772,3.0492312908172607,0.000194280408,667.69507696
1574849585.0160189,3.1057729721069336,0.000208106823,717.7466992599999
1574849585.0494673,3.139221429824829,0.000211086124,728.53176888
1574849585.1032217,3.1929757595062256,0.000210911036,727.89795032
1574849585.1500933,3.239847421646118,0.000210952945,728.0496608999999
1574849585.214251,3.3040051460266113,0.000211017206,728.28228572
1574849585.2483237,3.3380777835845947,0.000210852362,727.6855504399999
1574849585.2952213,3.3849754333496094,0.000201178715,692.6669483
1574849585.3421972,3.4319512844085693,0.000191309489,656.94035018
1574849585.3890672,3.478821277618408,0.000187196769,642.05230378
1574849585.4359393,3.525693416595459,0.000187364407,642.65915334
1574849585.4961462,3.58590030670166,0.000187213533,642.11298946
1574849585.5421638,3.631917953491211,0.000187440775,642.9356055
1574849585.5816278,3.671381950378418,0.000197782181,680.37149522
1574849585.628622,3.7183761596679688,0.000207772478,716.53637036
1574849585.6882143,3.777968406677246,0.000210214406,725.37614972
1574849585.7293067,3.819060802459717,0.000209973194,724.50296228
1574849585.7761824,3.865936517715454,0.000210145488,725.12666656
1574849585.8230486,3.9128026962280273,0.000206465833,711.80631546
1574849585.8699214,3.9596755504608154,0.000195911154,673.5983774800001
1574849585.9167967,4.0065507888793945,0.000192075036,659.71163032
1574849585.9732027,4.062956809997559,0.000191898085,659.0710677000001
1574849586.0156796,4.105433702468872,0.00019213371,659.9240302
1574849586.0626528,4.152406930923462,0.000191982836,659.3778663200001
1574849586.109521,4.199275016784668,0.000192081556,659.73523272
1574849586.1681209,4.257874965667725,0.000202644616,697.97350992
1574849586.2016933,4.291447401046753,0.000210134313,725.08621306
1574849586.2641914,4.35394549369812,0.000210345723,725.85151726
1574849586.3111854,4.400939464569092,0.000210211612,725.3660354399999
1574849586.3580606,4.447814702987671,0.00021020323,725.3356926
1574849586.4049277,4.4946818351745605,0.000204108655,703.2733311
1574849586.4530907,4.542844772338867,0.00019371137,665.6351593999999
1574849586.501082,4.590836048126221,0.000191859901,658.93284162
1574849586.5505106,4.6402647495269775,0.000191741623,658.50467526
1574849586.5973632,4.687117338180542,0.00019183103,658.8283286
1574849586.6442523,4.734006404876709,0.000191887841,659.0339844199999
1574849586.6960728,4.785826921463013,0.00020405557,703.0811633999999
1574849586.7320428,4.821796894073486,0.000210565515,726.6471643
1574849586.779038,4.8687920570373535,0.000210423023,726.13134326
1574849586.8259068,4.915660858154297,0.000210440718,726.19539916
1574849586.8883133,4.978067398071289,0.000204826705,705.8726720999999
1574849586.9355922,5.025346279144287,0.000193733722,665.71607364
1574849586.9835765,5.073330640792847,0.000191548839,657.80679718
1574849587.0316458,5.121399879455566,0.000191438943,657.4089736599999
1574849587.0786436,5.168397665023804,0.000191482715,657.5674283
1574849587.125515,5.215269088745117,0.00019157771,657.9113102
1574849587.1744382,5.264192342758179,0.000194380991,668.05918742
1574849587.2185333,5.3082873821258545,0.000208124518,717.81075516
1574849587.2652752,5.355029344558716,0.000210464932,726.28305384
1574849587.3122804,5.402034521102905,0.000210463069,726.27630978
1574849587.359148,5.448902130126953,0.000210589729,726.73481898
1574849587.4138258,5.50357985496521,0.000204847194,705.94684228
1574849587.4619439,5.5516979694366455,0.000193977728,666.59937536
1574849587.4998498,5.589603900909424,0.000191356987,657.11229294
1574849587.546852,5.636606216430664,0.000191442668,657.4224581599999
1574849587.593721,5.683475017547607,0.000191536732,657.76296984
1574849587.6562138,5.745967864990234,0.000192597508,661.60297896
1574849587.7017856,5.791539669036865,0.000207518227,715.6159817399999
1574849587.75103,5.840784072875977,0.000210571103,726.66739286
1574849587.798987,5.8887410163879395,0.000210584141,726.7145904199999
1574849587.84773,5.9374840259552,0.000210631639,726.8865331799999
1574849587.8927,5.982454061508179,0.000209143385,721.4990537
1574849587.933671,6.023425102233887,0.00019745063,679.1712806
1574849587.9805424,6.0702965259552,0.000191164203,656.41441486
1574849588.0274103,6.117164373397827,0.000191254541,656.74143842
1574849588.086368,6.176122188568115,0.000191884115,659.0204963
1574849588.1332667,6.223020792007446,0.000206927769,713.4785237799999
1574849588.1813686,6.271122694015503,0.000210815109,727.5506945799999
1574849588.218205,6.307959079742432,0.00021066051,726.9910461999999
1574849588.2651043,6.3548583984375,0.000210694969,727.1157877799999
1574849588.3276994,6.4174535274505615,0.000201588497,694.15035914
1574849588.3762026,6.465956687927246,0.000191607513,658.01919706
1574849588.417452,6.507206201553345,0.000191010535,655.8581367
1574849588.4643219,6.5540759563446045,0.000190854073,655.29174426
1574849588.5113235,6.601077556610107,0.000190954655,655.6558511
1574849588.5581913,6.647945404052734,0.000206318684,711.27363608
1574849588.6050665,6.6948206424713135,0.000211494975,730.0118095
1574849588.6519325,6.741686582565308,0.000211655162,730.59168644
1574849588.7122664,6.80202054977417,0.000211468898,729.9174107599999
1574849588.7571933,6.846947431564331,0.000207106583,714.12583046
1574849588.8083348,6.8980889320373535,0.000194351189,667.95130418
1574849588.8557763,6.945530414581299,0.000187132508,641.81967896
1574849588.899934,6.989688158035278,0.000187048689,641.51625418
1574849588.9469316,7.0366857051849365,0.000186876394,640.8925462799999
1574849588.993803,7.08355712890625,0.000201179646,692.67031852
1574849589.040593,7.130347013473511,0.000210218132,725.38963784
1574849589.087553,7.17730712890625,0.000210319646,725.7571185200001
1574849589.1344173,7.22417140007019,0.000210558064,726.62019168
1574849589.1912978,7.281051874160767,0.000206544064,712.08951168
1574849589.2340612,7.32381534576416,0.000195526518,672.2059951599999
1574849589.2807992,7.370553255081177,0.000191717409,658.41702058
1574849589.3330274,7.422781467437744,0.000191557221,657.83714002
1574849589.3833513,7.473105430603027,0.00019179564,658.7002167999999
1574849589.4303403,7.520094394683838,0.000198394991,682.58986742
1574849589.477216,7.566970109939575,0.000209638849,723.29263338
1574849589.524083,7.613837003707886,0.000210684724,727.0787008799999
1574849589.5709589,7.660712957382202,0.000210422091,726.12796942
1574849589.617829,7.70758318901062,0.000210651197,726.9573331400001
1574849589.6645696,7.754323720932007,0.000201926567,695.3741725399999
1574849589.7183738,7.8081278800964355,0.000192129053,659.9071718600001
1574849589.7652416,7.8549957275390625,0.000191478059,657.55057358
1574849589.8138716,7.903625726699829,0.000191334635,657.0313786999999
1574849589.8514102,7.941164255142212,0.0002020346,695.765252
1574849589.8983095,7.98806357383728,0.000210696831,727.1225282199999
1574849589.945279,8.035032987594604,0.000210742466,727.28772692
1574849590.006862,8.09661602973938,0.000210816041,727.55406842
1574849590.0538661,8.143620252609253,0.000207965262,717.23424844
1574849590.100737,8.190491199493408,0.000195995905,673.9051761000001
1574849590.1474745,8.237228631973267,0.000190490857,653.9769023399999
1574849590.207894,8.297648191452026,0.000187228434,642.16693108
1574849590.2417018,8.331455945968628,0.000187892467,644.57073054
1574849590.2926702,8.382424354553223,0.000202983618,699.20069716
1574849590.3407853,8.43053936958313,0.000210052356,724.78952872
1574849590.3807313,8.47048544883728,0.000210077502,724.88055724
1574849590.427733,8.517487049102783,0.00020644255,711.722031
1574849590.4746017,8.564355850219727,0.000195757486,673.0420993199999
1574849590.5214767,8.611230850219727,0.000191828236,658.81821432
1574849590.583972,8.673726081848145,0.000192248262,660.3387084399999
1574849590.6307101,8.72046422958374,0.000206551515,712.1164842999999
1574849590.6788383,8.768592357635498,0.000210981816,728.15417392
1574849590.7151642,8.80491828918457,0.000211041421,728.3699440199999
1574849590.7751977,8.864951848983765,0.000202127732,696.10238984
1574849590.8174913,8.907245397567749,0.000191860832,658.9362118399999
1574849590.8643572,8.954111337661743,0.00018712692,641.7994504
1574849590.9113557,9.001109838485718,0.00019028876,653.2453112
1574849590.9582298,9.047983884811401,0.000206043944,710.2790772799999
1574849591.005101,9.094855070114136,0.00021099858,728.2148596
1574849591.0519738,9.141727924346924,0.000204854645,705.9738149
1574849591.1006763,9.190430402755737,0.000192763284,662.2030880799999
1574849591.1474137,9.237167835235596,0.000187468715,643.0367483
1574849591.2003682,9.290122270584106,0.000187475234,643.06034708
1574849591.256166,9.345920085906982,0.000202376395,697.0025499
1574849591.2981386,9.387892723083496,0.000210242346,725.47729252
1574849591.3451402,9.434894323348999,0.000209737569,723.6499997799999
1574849591.3920162,9.481770277023315,0.000199559145,686.8041049
1574849591.4388833,9.528637409210205,0.000191814266,658.76764292
1574849591.4857543,9.57550835609436,0.000191728584,658.45747408
1574849591.5325217,9.622275829315186,0.000197875313,680.70863306
1574849591.579492,9.669246196746826,0.000210141763,725.11318206
1574849591.6263685,9.7161226272583,0.000211258419,729.15547678
1574849591.673235,9.762989044189453,0.000210635364,726.9000176799999
1574849591.7341871,9.823941230773926,0.000197425485,679.0802557
1574849591.7835634,9.87331748008728,0.000189885497,651.78549914
1574849591.830482,9.920236110687256,0.00018707104,641.5971648
1574849591.8773494,9.967103481292725,0.000187207945,642.0927608999999
1574849591.924221,10.013975143432617,0.00018721167,642.1062454
1574849591.9710948,10.060848951339722,0.000187076628,641.61739336
1574849592.0179656,10.107719659805298,0.000187370926,642.68275212
1574849592.0647094,10.154463529586792,0.000187167898,641.94779076
1574849592.1115751,10.201329231262207,0.000187252648,642.2545857599999
1574849592.1535017,10.243255853652954,0.000187293626,642.40292612
1574849592.2140176,10.303771734237671,0.000187127851,641.80282062
1574849592.2621264,10.351880550384521,0.0001873523,642.615326
1574849592.298324,10.388078212738037,0.000187138095,641.8399039
1574849592.3453276,10.435081720352173,0.000187262893,642.29167266
1574849592.4078226,10.497576713562012,0.000187267549,642.30852738
1574849592.4546928,10.54444694519043,0.000187098049,641.69493738
1574849592.501566,10.591320037841797,0.000187410042,642.8243520399999
1574849592.548337,10.638091087341309,0.000187110156,641.73876472
1574849592.5953057,10.685059785842896,0.000187201425,642.0691585
1574849592.6421773,10.731931447982788,0.000187283382,642.3658428399999
1574849592.6933622,10.783116340637207,0.000187140889,641.85001818
1574849592.734861,10.824615001678467,0.000187361613,642.64903906
1574849592.781748,10.871502161026001,0.000187201425,642.0691585
1574849592.8287346,10.91848874092102,0.000202088617,695.96079354
1574849592.8756058,10.965359926223755,0.000209544785,722.9521216999999
1574849592.9224734,11.012227535247803,0.000210125931,725.05587022
1574849592.9693453,11.059099435806274,0.000210396014,726.03357068
1574849593.031721,11.121475219726562,0.00020703394,713.8628628
1574849593.0787137,11.16846776008606,0.000196432695,675.4863559
1574849593.1255863,11.215340375900269,0.000192049891,659.6206054200001
1574849593.176131,11.2658851146698,0.000191938132,659.2160378399999
1574849593.2241843,11.31393837928772,0.000192200765,660.1667692999999
1574849593.2652473,11.355001449584961,0.000191961415,659.3003223000001
1574849593.3121815,11.401935577392578,0.000192094594,659.78243028
1574849593.3591156,11.448869705200195,0.000192103907,659.81614334
1574849593.4059832,11.495737314224243,0.00019202102,659.5160924
1574849593.4528592,11.54261326789856,0.000205997378,710.11050836
1574849593.4996316,11.589385747909546,0.000210801139,727.50012318
1574849593.546596,11.636350154876709,0.0002108505,727.67881
1574849593.5934715,11.683225631713867,0.000210870057,727.74960634
1574849593.653416,11.743170022964478,0.000210721046,727.21018652
1574849593.7014182,11.79117226600647,0.000210976228,728.13394536
1574849593.7495098,11.839263916015625,0.000208588317,719.48970754
1574849593.7963758,11.88612985610962,0.000196557492,675.9381210399999
1574849593.8432546,11.933008670806885,0.000190995634,655.80419508
1574849593.890122,11.979876041412354,0.000188490376,646.7351611199999
1574849593.9368622,12.026616334915161,0.000187548809,643.32668858
1574849593.9838662,12.073620319366455,0.000187340192,642.57149504
1574849594.0306034,12.120357513427734,0.000187494792,643.13114704
1574849594.095592,12.185346126556396,0.000195022672,670.3820726399999
1574849594.1323404,12.222094535827637,0.00020694267,713.5324654
1574849594.1843336,12.27408766746521,0.00021028053,725.6155186
1574849594.2171142,12.306868314743042,0.00020999182,724.5703884
1574849594.2797391,12.369493246078491,0.000210128725,725.0659845
1574849594.3266075,12.416361570358276,0.000209142454,721.49568348
1574849594.3734822,12.463236331939697,0.000199794769,687.65706378
1574849594.4203491,12.510103225708008,0.000192167237,660.04539794
1574849594.4671803,12.556934356689453,0.000191989355,659.4014651
1574849594.5139635,12.603717565536499,0.000192137435,659.9375147
1574849594.560842,12.650596141815186,0.000192104839,659.8195171799999
1574849594.6134322,12.703186273574829,0.000191998668,659.43517816
1574849594.6516008,12.741354942321777,0.000192262232,660.38927984
1574849594.7122126,12.801966667175293,0.000199058093,684.99029666
1574849594.748482,12.838236093521118,0.000209154561,721.53951082
1574849594.7954383,12.885192394256592,0.000210311264,725.72677568
1574849594.8423095,12.932063579559326,0.00021019578,725.3087235999999
1574849594.8891811,12.978935241699219,0.000210394152,726.02683024
1574849594.9516773,13.041431427001953,0.000207839534,716.77911308
1574849594.99842,13.088174104690552,0.000197076239,677.81598518
1574849595.0454159,13.135169982910156,0.000191783533,658.6563894599999
1574849595.0931969,13.182950973510742,0.000191691332,658.3226218399999
1574849595.1412847,13.231038808822632,0.000192025676,659.53294712
1574849595.2032845,13.293038606643677,0.000191749074,658.53164788
1574849595.2316267,13.321380853652954,0.0001919223,659.1587259999999
1574849595.2786152,13.368369340896606,0.000191882253,659.0137558600001
1574849595.325403,13.415157079696655,0.000191764906,658.5889597199999
1574849595.3723676,13.462121725082397,0.000192033127,659.5599197399999
1574849595.419242,13.50899600982666,0.000191769563,658.6058180599999
1574849595.4659846,13.555738687515259,0.000191926956,659.17558072
1574849595.5129867,13.60274076461792,0.000191932544,659.19580928
1574849595.57561,13.665364027023315,0.000191735104,658.48107648
1574849595.6172233,13.706977367401123,0.000192038715,659.5801483
1574849595.6700587,13.759812831878662,0.000191788189,658.67324418
1574849595.7149343,13.804688453674316,0.000191947445,659.2497509
1574849595.7619205,13.851674556732178,0.000191917643,659.14186766
1574849595.8086603,13.898414373397827,0.000191764906,658.5889597199999
1574849595.8556633,13.945417404174805,0.000192026608,659.5363209599999
1574849595.9025342,13.99228835105896,0.00019180309,658.7271858
1574849595.9494023,14.039156436920166,0.000191994943,659.42169366
1574849595.9962773,14.086031436920166,0.000191919506,659.14861172
1574849596.0553358,14.145089864730835,0.000191810541,658.75415842
1574849596.1015387,14.191292762756348,0.000191982836,659.3778663200001
Time, Time Since Begin, V/V Raw Data, Force 
