Time, Time Since Begin, V/V Raw Data, Force 
1574850418.7830157,0.24495363235473633,0.000129564665,433.4240873
1574850418.829892,0.29182982444763184,0.000129057094,431.58668028
1574850418.8820722,0.3440101146697998,0.000128852203,430.84497486
1574850418.9100542,0.3719921112060547,0.00012893416,431.14165919999994
1574850418.9570267,0.4189646244049072,0.000129209831,432.13958821999995
1574850418.9882812,0.45021915435791016,0.000129579566,433.47802891999993
1574850419.0351574,0.49709534645080566,0.000129798427,434.27030574
1574850419.0836446,0.5455825328826904,0.00012987759,434.5568758
1574850419.115029,0.5769670009613037,0.000129870139,434.52990317999996
1574850419.1619012,0.6238391399383545,0.000129696913,433.90282506
1574850419.2144763,0.6764142513275146,0.000129506923,433.2150612599999
1574850419.2441866,0.7061245441436768,0.000129312277,432.51044274
1574850419.2911882,0.7531261444091797,0.000129058026,431.59005411999993
1574850419.3380713,0.8000092506408691,0.000129168853,431.99124785999993
1574850419.3825207,0.8444585800170898,0.000129333697,432.58798314
1574850419.42622,0.888157844543457,0.00012952555,433.28249099999994
1574850419.4576004,0.9195382595062256,0.000129771419,434.17253678
1574850419.5044749,0.9664127826690674,0.000129899941,434.63778642
1574850419.5513494,1.0132873058319092,0.000129898079,434.63104597999995
1574850419.5825996,1.0445375442504883,0.00012971554,433.9702548
1574850419.6316671,1.0936050415039062,0.000129472464,433.09031968000005
1574850419.6602383,1.122176170349121,0.000129176304,432.01822047999997
1574850419.7072139,1.169151782989502,0.000129026361,431.47542681999994
1574850419.7540953,1.2160332202911377,0.000129029155,431.4855410999999
1574850419.8009622,1.2629001140594482,0.000129171647,432.00136213999997
1574850419.8322177,1.2941555976867676,0.00012946222,433.05323639999995
1574850419.888412,1.3503499031066895,0.000129842199,434.42876038
1574850419.9241369,1.3860747814178467,0.000130034052,435.12326823999996
1574850419.955387,1.4173250198364258,0.000129988417,434.95806954
1574850420.0022063,1.464144229888916,0.000129691325,433.8825965
1574850420.0559711,1.517909049987793,0.000129494816,433.17123392
1574850420.0960686,1.5580065250396729,0.000129265711,432.34187381999993
1574850420.1278865,1.5898244380950928,0.000129038468,431.51925415999995
1574850420.1748888,1.636826753616333,0.000129130669,431.85302177999995
1574850420.2217667,1.6837046146392822,0.000129320659,432.54078558000003
1574850420.2530117,1.714949607849121,0.000129522756,433.27237672
1574850420.2931113,1.755049228668213,0.000129855238,434.47596156000003
1574850420.3401134,1.802051305770874,0.00012923684,432.2373608
1574850420.3930132,1.8549511432647705,0.000129554421,433.38700402
1574850420.4400167,1.9019546508789062,0.000129774213,434.18265105999996
1574850420.4967294,1.958667278289795,0.000129186548,432.05530375999996
1574850420.5449867,2.006924629211426,0.000129848719,434.45236278
1574850420.5919085,2.0538463592529297,0.000129211694,432.14633227999997
1574850420.6387808,2.1007187366485596,0.000129482709,433.12740658
1574850420.6856532,2.1475911140441895,0.000129770488,434.16916656
1574850420.7325292,2.194467067718506,0.000128982589,431.31697218
1574850420.7794073,2.241345167160034,0.000130046159,435.16709557999997
1574850420.8261535,2.2880914211273193,0.000129178166,432.02496091999996
1574850420.8821986,2.3441364765167236,0.000129513443,433.23866366
1574850420.925904,2.3878419399261475,0.000129790977,434.24333673999996
1574850420.9749286,2.436866521835327,0.000129050575,431.56308149999995
1574850421.0123138,2.4742517471313477,0.000130045228,435.16372536
1574850421.0592165,2.5211544036865234,0.000129168853,431.99124785999993
1574850421.121812,2.583750009536743,0.000129520893,433.26563266
1574850421.168691,2.630628824234009,0.000129779801,434.20287962
1574850421.2155602,2.6774981021881104,0.000129008666,431.41137091999997
1574850421.2624412,2.724379062652588,0.000129996799,434.98841238
1574850421.3248081,2.786746025085449,0.000129182823,432.04181926
1574850421.3560567,2.8179945945739746,0.00012952555,433.28249099999994
1574850421.4090197,2.870957612991333,0.00012972299,433.9972238
1574850421.4575057,2.9194436073303223,0.000129035674,431.50913987999996
1574850421.4949546,2.956892490386963,0.000130009837,435.03560994000003
1574850421.5419526,3.0038905143737793,0.000129189342,432.06541804
1574850421.5888307,3.0507686138153076,0.000129562803,433.41734685999995
1574850421.6357021,3.097640037536621,0.000129683875,433.8556275
1574850421.6905274,3.152465343475342,0.000129214488,432.15644656
1574850421.737496,3.1994338035583496,0.000129850581,434.45910322
1574850421.7842531,3.2461910247802734,0.000129235908,432.23398696000004
1574850421.8312461,3.2931840419769287,0.000129517168,433.25214816
1574850421.887472,3.349409818649292,0.000129650347,433.73425614
1574850421.9370751,3.399013042449951,0.000138063915,464.1913723
1574850421.977632,3.4395699501037598,0.000163865276,557.59229912
1574850422.0245085,3.4864463806152344,0.000186333433,638.92702746
1574850422.0805676,3.5425055027008057,0.000205591321,708.64058202
1574850422.1159701,3.5779080390930176,0.00022225827,768.9749374
1574850422.1628382,3.6247761249542236,0.0002370039,822.354118
1574850422.2253323,3.687270164489746,0.000251802616,875.92546992
1574850422.2722244,3.7341623306274414,0.000264161266,920.6637829199999
1574850422.3190987,3.781036615371704,0.000276202336,964.25245632
1574850422.3663526,3.8282904624938965,0.000287047587,1003.5122649399999
1574850422.414367,3.876304864883423,0.000296041369,1036.0697557800002
1574850422.4577029,3.9196407794952393,0.000304351561,1066.15265082
1574850422.5045776,3.96651554107666,0.000311110169,1090.61881178
1574850422.551472,4.013409852981567,0.000318989158,1119.1407519600002
1574850422.5983267,4.060264587402344,0.000325330533,1142.09652946
1574850422.6452014,4.107139348983765,0.000328360125,1153.0636525000002
1574850422.6920757,4.154013633728027,0.000332704745,1168.7911769000002
1574850422.7389536,4.200891494750977,0.000334057957,1173.6898043400001
1574850422.8014534,4.2633912563323975,0.000334118493,1173.90894466
1574850422.848358,4.310295820236206,0.000334177166,1174.12134092
1574850422.8975518,4.359489679336548,0.000333626755,1172.1288531000002
1574850422.9462516,4.408189535140991,0.0003342079,1174.232598
1574850422.9931273,4.4550652503967285,0.000333538279,1171.8085699800001
1574850423.0401278,4.502065658569336,0.000333786942,1172.70873004
1574850423.0869052,4.548843145370483,0.000333896838,1173.10655356
1574850423.1337585,4.595696449279785,0.000318097882,1115.91433284
1574850423.1865704,4.648508310317993,0.000294290483,1029.73154846
1574850423.2335496,4.6954874992370605,0.000266052783,927.5110744599999
1574850423.2804267,4.7423646450042725,0.000238935463,829.34637606
1574850423.3271832,4.789121150970459,0.000213853084,738.54816408
1574850423.375086,4.837023973464966,0.000191798434,658.71033108
1574850423.4113781,4.873316049575806,0.000174842775,597.3308455
1574850423.4740071,4.9359450340271,0.0001626499,553.192638
1574850423.5208817,4.982819557189941,0.00015721377,533.5138474
1574850423.567757,5.0296947956085205,0.000157832168,535.75244816
1574850423.6134586,5.075396537780762,0.000157448463,534.3634360599999
1574850423.6602097,5.122147560119629,0.000158170238,536.97626156
1574850423.7072048,5.169142723083496,0.000157635659,535.04108558
1574850423.7540824,5.216020345687866,0.000157959759,536.21432758
1574850423.8009598,5.262897729873657,0.000158108771,536.75375102
1574850423.8580394,5.319977283477783,0.000157814473,535.68839226
1574850423.8943682,5.356306076049805,0.000181538053,621.5677518599999
1574850423.9413717,5.40330958366394,0.000205005519,706.51997878
1574850423.9882472,5.450185060501099,0.000224241987,776.15599294
1574850424.0506165,5.512554407119751,0.000240812078,836.1397223600001
1574850424.09762,5.559557914733887,0.000254468992,885.57775104
1574850424.1443925,5.606330394744873,0.000266005285,927.3391316999999
1574850424.191366,5.653303861618042,0.000275766477,962.67464674
1574850424.2382421,5.7001800537109375,0.000286247581,1000.61624322
1574850424.278305,5.740242958068848,0.000295698643,1034.82908766
1574850424.335883,5.797820806503296,0.000303257257,1062.19127034
1574850424.3858101,5.847748041152954,0.000311738811,1092.8944958200002
1574850424.4255114,5.887449264526367,0.000319186598,1119.85548476
1574850424.472509,5.934446811676025,0.000326195732,1145.2285498400001
1574850424.5247347,5.986672639846802,0.000330704264,1161.54943568
1574850424.5717306,6.033668518066406,0.000334151089,1174.02694218
1574850424.6184778,6.080415725708008,0.000334707089,1176.03966218
1574850424.6654863,6.127424240112305,0.00033405982,1173.6965484000002
1574850424.7123594,6.174297332763672,0.000334247015,1174.3741943000002
1574850424.759134,6.22107195854187,0.000334269367,1174.45510854
1574850424.8159578,6.27789568901062,0.000333772041,1172.65478842
1574850424.8650863,6.327024221420288,0.00033434853,1174.7416786000001
1574850424.9096603,6.371598243713379,0.000333768316,1172.6413039200002
1574850424.9566581,6.418596029281616,0.000334021635,1173.5583187000002
1574850425.0035353,6.465473175048828,0.000326524489,1146.4186501800002
1574850425.0504048,6.512342691421509,0.000303256325,1062.1878965
1574850425.0988648,6.560802698135376,0.000275631435,962.1857946999999
1574850425.145821,6.60775899887085,0.00024622865,855.7477129999999
1574850425.1925943,6.654532194137573,0.000219599344,759.3496252799999
1574850425.239566,6.7015039920806885,0.000196072273,674.18162826
1574850425.2961445,6.758082389831543,0.000176156871,602.08787302
1574850425.3439589,6.805896759033203,0.000162958167,554.30856454
1574850425.393817,6.855754852294922,0.000154611655,524.0941911
1574850425.4408224,6.90276026725769,0.000154568814,523.93910668
1574850425.4876924,6.949630260467529,0.000154779293,524.70104066
1574850425.534571,6.996508836746216,0.000154449604,523.5075664799999
1574850425.5814433,7.043381214141846,0.000155061483,525.72256846
1574850425.628317,7.09025502204895,0.000154614449,524.1043053799999
1574850425.6751904,7.1371283531188965,0.000154909678,525.17303436
1574850425.7220619,7.18399977684021,0.000154997222,525.48994364
1574850425.7775972,7.239535093307495,0.000154602341,524.0604744199999
1574850425.8111992,7.273137092590332,0.000164423138,559.61175956
1574850425.873801,7.335738897323608,0.000190152787,652.75308894
1574850425.911259,7.373196840286255,0.000212558545,733.8619328999999
1574850425.958238,7.420175790786743,0.000230393372,798.4240066399999
1574850426.0051124,7.467050313949585,0.000245976262,854.83406844
1574850426.051983,7.513921022415161,0.000260705128,908.1525633599999
1574850426.1144834,7.57642126083374,0.000272922218,952.3784291599999
1574850426.1613622,7.623300075531006,0.000285041519,996.25029878
1574850426.2082353,7.670173168182373,0.000294847414,1031.7476386800001
1574850426.2576828,7.719620704650879,0.000302838162,1060.67414644
1574850426.294184,7.756121873855591,0.00031148456,1091.9741072
1574850426.3566713,7.818609237670898,0.000318919308,1118.88789496
1574850426.4093366,7.871274471282959,0.000325960107,1144.37558734
1574850426.4563127,7.918250560760498,0.00033030659,1160.1098558
1574850426.5031838,7.965121746063232,0.000334178098,1174.1247147600002
1574850426.5500593,8.01199722290039,0.00033623632,1181.5754784
1574850426.5969357,8.058873653411865,0.000336572528,1182.79255136
1574850426.643679,8.105616807937622,0.00033665169,1183.0791178000002
1574850426.6905694,8.152507305145264,0.000336607918,1182.9206631600002
1574850426.7429326,8.204870462417603,0.000336347148,1181.97667576
1574850426.791053,8.252990961074829,0.000336571597,1182.7891811400002
1574850426.8420987,8.304036617279053,0.000336298719,1181.80136278
1574850426.8905802,8.352518081665039,0.000336429104,1182.27335648
1574850426.9264514,8.388389348983765,0.000336364843,1182.0407316600001
1574850426.97346,8.435397863388062,0.000336248428,1181.6193093600002
1574850427.020332,8.482270002365112,0.000336373225,1182.0710745000001
1574850427.082706,8.544643878936768,0.000336203724,1181.45748088
1574850427.1297076,8.59164547920227,0.000336293131,1181.78113422
1574850427.1769302,8.6388680934906,0.000325076282,1141.17614084
1574850427.225064,8.687001943588257,0.00030129496,1055.0877552
1574850427.261541,8.7234787940979,0.000273005106,952.67848372
1574850427.3084524,8.770390272140503,0.000243923627,847.40352974
1574850427.3708284,8.83276629447937,0.000217098743,750.29744966
1574850427.4119446,8.873882532119751,0.000193676911,665.51041782
1574850427.458685,8.920622825622559,0.000174364075,595.5979515
1574850427.5056918,8.967629671096802,0.000161232427,548.06138574
1574850427.5525634,9.014501333236694,0.000154161826,522.46581012
1574850427.5994408,9.061378717422485,0.000154675916,524.32681592
1574850427.6463168,9.108254671096802,0.000154707581,524.44144322
1574850427.7045755,9.166513442993164,0.000154717825,524.4785264999999
1574850427.744692,9.206629991531372,0.000154861249,524.9977213799999
Time, Time Since Begin, V/V Raw Data, Force 
