Time, Time Since Begin, V/V Raw Data, Force 
1574855087.5232224,0.24240660667419434,-0.000133734196,-528.2196251583999
1574855087.5703793,0.2895634174346924,-0.00013375096,-528.280485184
1574855087.6187482,0.3379323482513428,-0.000133745372,-528.2601985088
1574855087.647789,0.3669731616973877,-0.000133665279,-527.9694288816
1574855087.6949868,0.4141709804534912,-0.000133623369,-527.8172788175999
1574855087.742243,0.4614272117614746,-0.000133556314,-527.5738423455999
1574855087.7894042,0.5085883140563965,-0.00013313815,-526.05573976
1574855087.820845,0.5400290489196777,-3.281422e-05,-161.83974428800002
1574855087.8680081,0.5871922969818115,5.9982762e-05,175.05041916480002
1574855087.8993425,0.6185266971588135,0.000170816667,577.4218278768
1574855087.9575021,0.6766862869262695,0.000302047469,1053.8421314576
1574855087.998619,0.7178032398223877,0.000431092456,1522.3270522624
1574855088.0300584,0.7492425441741943,0.000552040525,1961.41692196
1574855088.0772176,0.7964017391204834,0.000661707483,2359.5518462832
1574855088.1290364,0.8482205867767334,0.000756439753,2703.4678792912005
1574855088.169726,0.8889100551605225,0.000841520727,3012.3458473008004
1574855088.2011356,0.9203197956085205,0.000919389538,3295.0407787552
1574855088.248425,0.967609167098999,0.000986195169,3537.5719415376
1574855088.2955813,1.0147655010223389,0.001046932302,3758.0720291808007
1574855088.3270278,1.0462119579315186,0.001103397459,3963.0631351536003
1574855088.3760684,1.095252513885498,0.001157579012,4159.763845164799
1574855088.4047565,1.1239407062530518,0.001206774265,4338.362291656
1574855088.4675527,1.186736822128296,0.001256052405,4517.2616511119995
1574855088.4990826,1.2182667255401611,0.001300949603,4680.2564387311995
1574855088.5462437,1.265427827835083,0.001340487041,4823.7931536464
1574855088.5776834,1.2968676090240479,0.001363862306,4908.6547157024
1574855088.6338842,1.3530683517456055,0.001360542141,4896.6011886864
1574855088.6699927,1.389176845550537,0.001358303241,4888.4730861264
1574855088.717157,1.4363410472869873,0.001356805675,4883.036322519999
1574855088.7487264,1.4679105281829834,0.001355595887,4878.644308164799
1574855088.804082,1.523266077041626,0.00135465432,4875.226043328
1574855088.8408623,1.5600464344024658,0.001353931613,4872.6023278351995
1574855088.872224,1.5914082527160645,0.001353455707,4870.8745986928
1574855088.919509,1.63869309425354,0.001353101805,4869.589792872
1574855088.9665935,1.6857776641845703,0.001352840103,4868.6397099312
1574855089.0138316,1.733015775680542,0.001343205571,4833.6625049584
1574855089.0608625,1.7800467014312744,0.001233912073,4436.8833898192
1574855089.1081398,1.8273239135742188,0.001046668738,3757.1151864352005
1574855089.1564991,1.875683307647705,0.000817978755,2926.8790721520004
1574855089.2064202,1.9256043434143066,0.000571104698,2030.6274956192003
1574855089.2535486,1.9727327823638916,0.000331155956,1159.5175826624
1574855089.302272,2.021456241607666,0.000132524408,438.4056108032
1574855089.3428488,2.06203293800354,8.627772e-06,-11.388736531199996
1574855089.390054,2.1092381477355957,-0.000114636496,-458.88733507840004
1574855089.4372182,2.156402349472046,-0.000215592794,-825.3990793376
1574855089.4843776,2.203561782836914,-0.000253553502,-963.2116336608
1574855089.5315392,2.250723361968994,-0.000239843503,-913.4388532912
1574855089.5943234,2.313507556915283,-0.000218755566,-836.8812068064
1574855089.6436386,2.3628227710723877,-0.00019495748,-750.484635392
1574855089.6770906,2.3962748050689697,-0.000175721943,-680.6519418672
1574855089.7354674,2.4546515941619873,-0.000160519965,-625.462680936
1574855089.7775533,2.496737480163574,-0.000147805549,-579.3042650896
1574855089.8247437,2.5439279079437256,-0.000138768926,-546.4977089504
1574855089.8718755,2.591059684753418,-0.000131626613,-520.5682558351999
1574855089.9190366,2.63822078704834,-0.000126566738,-502.1988856352
1574855089.966329,2.6855132579803467,-0.000123989768,-492.8434537472
1574855090.0290775,2.7482616901397705,-0.000124203041,-493.6177200464
1574855090.076372,2.79555606842041,-0.000124416314,-494.39198634559995
1574855090.1235323,2.8427164554595947,-0.000123960897,-492.7386404688
1574855090.165131,2.884315252304077,-0.000124482438,-494.6320429152
1574855090.2185373,2.9377214908599854,-0.000123969279,-492.7690704816
1574855090.2611005,2.9802846908569336,-0.000124150887,-493.4283801648
1574855090.308393,3.0275771617889404,-0.000124298967,-493.9659697968
1574855090.3555527,3.0747368335723877,-0.000123853795,-492.34981736799995
1574855090.4027143,3.1218984127044678,-0.000124421902,-494.4122730208
1574855090.4498768,3.1690609455108643,-0.00012392085,-492.59325384000005
1574855090.4970317,3.2162158489227295,-0.000124105252,-493.2627068608
1574855090.559795,3.2789790630340576,-0.000124227256,-493.70563018240006
1574855090.60708,3.3262641429901123,-0.000123787671,-492.1097607984
1574855090.655774,3.3749582767486572,-0.000124304555,-493.98625647200004
1574855090.7029486,3.422132730484009,-0.000123782083,-492.08947412320003
1574855090.751926,3.4711101055145264,-0.000123969279,-492.7690704816
1574855090.7990859,3.5182700157165527,-0.000124147162,-493.4148569248
1574855090.8462472,3.5654313564300537,-0.000123718753,-491.85956089120003
1574855090.8934104,3.6125946044921875,-0.000124294311,-493.94906665440004
1574855090.9405699,3.6597540378570557,-0.000123720616,-491.8663243264
1574855090.9877326,3.7069168090820312,-0.000123959966,-492.73526056640003
1574855091.0347676,3.7539517879486084,-0.000124045648,-493.0463204992
1574855091.082054,3.8012380599975586,-0.000123620033,-491.50116780319996
1574855091.1292138,3.848397970199585,-0.000124199316,-493.6041968064
1574855091.1876042,3.9067883491516113,-0.000123659149,-491.6431745296
1574855091.2356002,3.954784393310547,-0.000123888254,-492.4749173216
1574855091.2828636,4.002047777175903,-0.000123978592,-492.80288039680005
1574855091.330022,4.049206256866455,-0.000123544596,-491.22730131840007
1574855091.3771806,4.096364736557007,-0.00012415275,-493.4351436
1574855091.4243462,4.143530368804932,-0.00012357533,-491.33887803199997
1574855091.4713745,4.190558671951294,-0.000123722479,-491.8730877616
1574855091.5185509,4.237735033035278,-1.4760531e-05,-96.2976317424
1574855091.5658286,4.285012722015381,9.0552494e-05,286.03077421759997
1574855091.6129894,4.332173585891724,0.000228654593,787.3966344272
1574855091.6703796,4.389563798904419,0.000379933044,1336.5979229375998
1574855091.70735,4.426534175872803,0.00052149035,1850.50756664
1574855091.7546096,4.4737937450408936,0.000649409369,2314.9047732176005
1574855091.8017712,4.520955324172974,0.000758800656,2712.0389015424003
1574855091.864521,4.583705186843872,0.000855090097,3061.6080881488
1574855091.9118147,4.630998849868774,0.000939529389,3368.1564938256
1574855091.958974,4.6781580448150635,0.001012018882,3631.3223492128004
1574855092.006135,4.725319147109985,0.001078299247,3871.9465863088008
1574855092.0532975,4.772481679916382,0.001141154207,4100.135233092799
1574855092.1004567,4.819640874862671,0.001197520643,4304.767942347199
1574855092.1541114,4.873295545578003,0.001252791844,4505.424510457599
1574855092.1914854,4.910669565200806,0.00130141899,4681.960501296
1574855092.2469552,4.966139316558838,0.001344233751,4837.3952096304
1574855092.2941175,5.013301610946655,0.001363183372,4906.1899137088
1574855092.3412807,5.060464859008789,0.001359090209,4891.330094753599
1574855092.3884425,5.107626676559448,0.001357794739,4886.627020465599
1574855092.435603,5.154787063598633,0.001356341876,4881.3525466304
1574855092.4827647,5.201948881149292,0.001355460845,4878.1540516879995
1574855092.5299258,5.249109983444214,0.001355069689,4876.7339989455995
1574855092.5769687,5.296152830123901,0.001354001462,4872.8559076448
1574855092.6334827,5.352666854858398,0.001354029402,4872.9573410207995
1574855092.6821387,5.401322841644287,0.001353221945,4870.025949128
1574855092.7293003,5.448484420776367,0.001352862455,4868.720856632
1574855092.7765903,5.495774507522583,0.001352818683,4868.5619467632005
1574855092.8237538,5.542937994003296,0.00135202799,4865.6914148959995
1574855092.8707993,5.5899834632873535,0.001335368492,4805.2107733568
1574855092.9180715,5.637255668640137,0.00121039059,4351.490997936
1574855092.9652379,5.684422016143799,0.001016881317,3648.9749332367996
1574855093.0123975,5.731581687927246,0.000783298165,2800.974658216
1574855093.0595586,5.778742790222168,0.000536241569,1904.0603920976
1574855093.1167276,5.835911750793457,0.000301517546,1051.9182989984
1574855093.1665125,5.885696649551392,0.000110960566,360.1202388064
1574855093.2152174,5.934401512145996,-5.921349e-06,-64.2078654096
1574855093.2625105,5.98169469833374,-0.000128989108,-510.99305768320005
1574855093.309671,6.028855085372925,-0.000222605653,-850.8585626512
1574855093.3568337,6.0760178565979,-0.0002502352,-951.1648700799999
1574855093.4039967,6.123180866241455,-0.000236956403,-902.9575254512
1574855093.4510581,6.1702423095703125,-0.000218073837,-834.4062578447999
1574855093.4983144,6.217498540878296,-0.000199294649,-766.2302937296
1574855093.5454786,6.264662742614746,-0.000183658674,-709.4654500896
1574855093.6027257,6.3219099044799805,-0.000172083266,-667.4420888864
1574855093.651516,6.370700120925903,-0.000166656449,-647.7405724496
1574855093.6967015,6.41588568687439,-0.000159702264,-622.4940992256
1574855093.7339246,6.453108787536621,-0.000109586865,-440.55515469600005
1574855093.781189,6.500373125076294,2.2474676e-05,38.8810637504
1574855093.8440645,6.563248634338379,0.000136367977,452.3593037008
1574855093.8912327,6.610416889190674,0.000283871777,987.8570992207999
1574855093.9383922,6.657576322555542,0.000432034023,1525.7453170992
1574855093.985465,6.704649209976196,0.00056843739,2020.9441006560003
1574855094.0327148,6.751899003982544,0.00068848487,2456.7644720480002
1574855094.0837498,6.802933931350708,0.000792960636,2836.0532929344
1574855094.1321588,6.8513429164886475,0.000883897766,3166.1914496864
1574855094.180733,6.899917125701904,0.000963987783,3456.9502474032
1574855094.2216504,6.9408345222473145,0.001036653295,3720.755122168
1574855094.2689147,6.988098859786987,0.001100875437,3953.9071864848006
1574855094.3160758,7.035259962081909,0.001163000241,4179.4450749264
1574855094.3632362,7.082420349121094,0.001219503582,4384.5748040928
1574855094.4104006,7.129584789276123,0.001273347996,4580.0515646784
1574855094.4574604,7.176644563674927,0.001322742552,4759.373560780799
1574855094.5204399,7.2396240234375,0.001359016635,4891.062991704
1574855094.5659368,7.285120964050293,0.001362960786,4905.381837494399
1574855094.6072268,7.326411008834839,0.001360207796,4895.3873825984
1574855094.6545138,7.373697996139526,0.001358924434,4890.7282651936
1574855094.7077665,7.426950693130493,0.001358017325,4887.435096679999
1574855094.755056,7.474240064620972,0.001357037574,4883.8782086496
1574855094.8022113,7.521395444869995,0.001356796362,4883.002512604799
1574855094.849375,7.568559169769287,0.001355982386,4880.047454134399
1574855094.8965366,7.615720748901367,0.001355709508,4879.0567978432
1574855094.9436939,7.662878036499023,0.001353992149,4872.8220977296005
1574855094.9908562,7.710040330886841,0.001265496016,4551.5457364864
1574855095.0489166,7.768100738525391,0.001086679287,3902.3694835248
1574855095.0931253,7.812309503555298,0.000863464549,3092.0106986896
1574855095.1404154,7.859599590301514,0.000619146973,2205.0401707792003
1574855095.1936352,7.9128193855285645,0.00037542358,1320.226764832
1574855095.2421918,7.961375951766968,0.000167334452,564.7799945408
1574855095.2780027,7.997186899185181,3.1311065e-05,70.96069037599999
1574855095.3410184,8.060202598571777,-8.677505e-05,-357.73914152000003
1574855095.3881798,8.107363939285278,-0.000194143504,-747.5295769216
1574855095.4353395,8.154523611068726,-0.000246696174,-938.3167900896
1574855095.4825017,8.201685905456543,-0.000242411159,-922.7604716336
1574855095.534569,8.253753185272217,-0.000226507895,-865.025262008
1574855095.5830467,8.302230834960938,-0.000211179256,-809.3761709824
1574855095.6302052,8.34938931465149,-0.000195972621,-754.1700032784
1574855095.6785457,8.397729873657227,-0.000184519216,-712.5895617663999
1574855095.7162683,8.435452461242676,-0.00018050801,-698.027279504
1574855095.7633321,8.482516288757324,-0.000180063769,-696.4145069776
1574855095.8105943,8.529778480529785,-0.0001802966,-697.25977664
1574855095.857755,8.576939105987549,-0.000180066563,-696.4246503152
1574855095.920637,8.63982105255127,-0.000180012546,-696.2285469984
1574855095.967797,8.686981201171875,-0.000180213712,-696.9588600448001
1574855096.014827,8.734011173248291,-0.000179730356,-695.2040844224
1574855096.0654116,8.784595727920532,-0.000180090778,-696.5125604512
1574855096.1144676,8.833651781082153,-0.000179857016,-695.6639108864
1574855096.161698,8.880882263183594,-0.000179696828,-695.0823643712
1574855096.203685,8.922869205474854,-0.000179917552,-695.8836807808
1574855096.2508523,8.970036506652832,-0.000179570168,-694.6225379072
1574855096.2981398,9.017323970794678,-0.000179866329,-695.6977208016
1574855096.345299,9.064483165740967,-0.000179613009,-694.7780678736001
1574855096.3923566,9.111540794372559,-0.000179545023,-694.5312514992
1574855096.4396174,9.158801555633545,-0.000179769471,-695.3460875183999
1574855096.500074,9.219258069992065,-0.000179314986,-693.6961251744
1574855096.5360885,9.255272626876831,-0.000179642811,-694.8862610544
1574855096.5833824,9.302566528320312,-0.000179406255,-694.027468152
1574855096.6305451,9.349729299545288,-0.000179336406,-693.7738883424
1574855096.69088,9.410064220428467,-0.000179524533,-694.4568646032001
1574855096.7356784,9.454862594604492,-0.000179145485,-693.080768744
1574855096.7828903,9.502074480056763,-0.000179532915,-694.487294616
1574855096.8301315,9.549315690994263,-0.000179189257,-693.2396786128
1574855096.877292,9.596476078033447,-0.000179218128,-693.3444918912
1574855096.9244556,9.64363980293274,-0.000179410912,-694.0443749248001
1574855096.981653,9.700837135314941,-0.000179054216,-692.7494257664
1574855097.0220447,9.741228818893433,-0.000179377384,-693.9226548736
1574855097.0693295,9.788513660430908,-0.000179088674,-692.8745220896001
1574855097.1164925,9.835676670074463,-0.000179074705,-692.823809032
1574855097.176829,9.896013259887695,-0.000179257244,-693.4864986176
1574855097.2232027,9.942386865615845,-0.000178915448,-692.2456424192001
1574855097.2704887,9.989672899246216,-0.000179269351,-693.5304518704
1574855097.3176525,10.036836624145508,-0.000178957358,-692.3977924832
1574855097.3648105,10.083994626998901,-0.00017903652,-692.685182208
1574855097.411974,10.131158113479614,-0.000179173425,-693.18220212
1574855097.4654133,10.184597492218018,-0.000178821385,-691.904156104
1574855097.509623,10.228807210922241,-0.000179125927,-693.0097653808001
1574855097.556883,10.27606725692749,-0.000178870745,-692.0833526480001
1574855097.6039577,10.323141813278198,-0.000178943388,-692.3470757952
1574855097.651203,10.370387077331543,-0.000178968534,-692.4383658336001
1574855097.7062387,10.42542290687561,-0.00017862767,-691.200893168
1574855097.7420623,10.461246490478516,-0.00017898716,-692.505985664
1574855097.8049116,10.5240957736969,-0.000178707764,-691.4916664256
1574855097.8522036,10.571387767791748,-0.000178849325,-692.00558948
1574855097.8993661,10.618550300598145,-0.000178975984,-692.4654123136
1574855097.9464262,10.665610313415527,-0.000178650953,-691.2854197711999
1574855097.9975708,10.716754913330078,-0.000178999268,-692.5499425472001
1574855098.0447307,10.763914823532104,-0.000178707764,-691.4916664256
1574855098.0920198,10.811203956604004,-0.000178772956,-691.7283394624001
1574855098.139185,10.85836911201477,-0.000178892165,-692.161115816
1574855098.190449,10.909633159637451,-0.000178530812,-690.8492598848
1574855098.2296062,10.948790311813354,-0.000178956427,-692.3944125808
1574855098.2841876,11.003371715545654,-0.000178636052,-691.2313231808
1574855098.331347,11.050531148910522,-0.000178709626,-691.4984262304
1574855098.378508,11.097692251205444,-0.00017882511,-691.917679344
1574855098.4326456,11.151829719543457,-0.000178480521,-690.6666834384
1574855098.4793353,11.198519468307495,-0.000178845599,-691.9920626096
1574855098.526499,11.245683193206787,-0.000178553164,-690.9304065855999
1574855098.57366,11.29284405708313,-0.000178671442,-691.3598030368
1574855098.6209633,11.340147495269775,-0.000178760849,-691.6843862096
1574855098.668256,11.387440204620361,-0.00017845165,-690.56187016
1574855098.7208183,11.44000244140625,-0.000178755261,-691.6640995344
1574855098.7653115,11.484495639801025,-0.000178516842,-690.7985431968
1574855098.8125727,11.53175687789917,-0.000178596936,-691.0893164544
1574855098.859617,11.578801155090332,-0.000178658403,-691.3124662512
1574855098.9133081,11.632492303848267,-0.000178422779,-690.4570568816
1574855098.9505708,11.669754981994629,-0.000178760849,-691.6843862096
1574855098.9978619,11.717046022415161,-0.000178408809,-690.4063401936
1574855099.060611,11.779795169830322,-0.000178510323,-690.7748766192001
1574855099.1077764,11.826960563659668,-0.000178602524,-691.1096031296
1574855099.1550667,11.874250888824463,-0.000178375281,-690.2846201424001
1574855099.2030916,11.92227578163147,-0.000169723295,-658.8744501680001
1574855099.2522366,11.971420764923096,-1.9834377e-05,-114.7177222608
1574855099.2994208,12.01860499382019,8.6309388e-05,270.6266021952
1574855099.3465989,12.065783023834229,0.000224163756,771.0930997824
1574855099.3960884,12.115272521972656,0.00037586689,1321.836157456
1574855099.4395428,12.158726930618286,0.000516654924,1832.9530360896
1574855099.4867027,12.205886840820312,0.000645344146,2300.1463876384005
1574855099.5339952,12.25317931175232,0.000754688866,2697.1114591264004
1574855099.5811539,12.30033802986145,0.000851473771,3048.4793782384004
1574855099.6283104,12.34749460220337,0.000936369412,3356.6845133248003
1574855099.6754756,12.394659757614136,0.001010028645,3624.0969928080003
1574855099.7223396,12.441523790359497,0.001076145098,3864.1261637792
1574855099.7696369,12.488821029663086,0.001138451509,4090.3233582736007
1574855099.8325162,12.551700353622437,0.001196704805,4301.806124072
1574855099.878614,12.597798109054565,0.001251148991,4499.4602969264
1574855099.923028,12.642212152481079,0.001301469281,4682.143077742399
1574855099.9701939,12.689378023147583,0.001346045174,4843.9713996896
1574855100.01745,12.736634254455566,0.001366984099,4919.988073009599
1574855100.064615,12.783799171447754,0.001363195479,4906.2338669616
1574855100.1117756,12.830959796905518,0.001361574046,4900.3474165984
1574855100.1588387,12.878022909164429,0.001360166818,4895.2386160672
1574855100.2192795,12.938463687896729,0.001359616406,4893.2404003424
1574855100.260077,12.97926115989685,0.001358810812,4890.3157718848
1574855100.3073356,13.026519775390625,0.001358186826,4888.0504531104
1574855100.3637018,13.082885980606079,0.001357850619,4886.8298872176
1574855100.41225,13.131434202194214,0.001357082278,4884.0405020512
1574855100.459413,13.178597211837769,0.001357041299,4883.891731889599
1574855100.506706,13.225890159606934,0.00135653466,4882.052429664
1574855100.553867,13.273051261901855,0.001356166787,4880.7169035248
1574855100.6010273,13.320211410522461,0.001356067136,4880.3551305344
1574855100.6481864,13.36737060546875,0.001342626289,4831.5594795856
1574855100.6952467,13.414430856704712,0.001224560663,4402.9340309552
1574855100.7452395,13.464423656463623,0.001031899825,3703.49812468
1574855100.7925289,13.511713027954102,0.000799360685,2859.288030824
1574855100.845538,13.564722061157227,0.000552472658,1962.9857376032
1574855100.8953907,13.614574909210205,0.000314323232,1098.4080614528
1574855100.9426856,13.661869764328003,0.000120024197,393.0248447888
1574855100.9898427,13.70902681350708,1.003966e-06,-39.0662018336
1574855101.0370042,13.75618839263916,-0.000122661702,-488.0220429408
1574855101.0840397,13.803223848342896,-0.000218144618,-834.6632211872001
1574855101.1311967,13.850380897521973,-0.000252600759,-959.7527954736
