Time, Time Since Begin, V/V Raw Data, Force 
1574850767.56153,0.22754740715026855,0.000111039728,360.4076285312
1574850767.6084025,0.27441978454589844,0.00011106953,360.515821712
1574850767.6552703,0.3212876319885254,0.000111044385,360.42453530399996
1574850767.6952837,0.3613009452819824,0.000111007132,360.2892920128
1574850767.7365098,0.4025270938873291,0.000111004338,360.27914867519996
1574850767.7678797,0.4338970184326172,0.000110900961,359.90384881439996
1574850767.814752,0.48076939582824707,0.000110947527,360.0729020208
1574850767.8616233,0.5276405811309814,0.000110904686,359.9173720544
1574850767.8928673,0.5588846206665039,0.000110952184,360.0898087936
1574850767.9397473,0.605764627456665,0.000111022964,360.3467685056
1574850767.9940012,0.6600184440612793,0.000132134184,436.9889415936
1574850768.0193229,0.685340166091919,0.000169997104,574.4464863616
1574850768.0663183,0.7323355674743652,0.000204495154,699.6882070816
1574850768.1131947,0.7792119979858398,0.000236677006,816.5212025824
1574850768.1606052,0.826622486114502,0.0002672337,927.45422448
1574850768.2045922,0.8706095218658447,0.000295282342,1029.2820143968
1574850768.2373154,0.9033327102661133,0.000320224091,1119.8305399664
1574850768.2685952,0.934612512588501,0.000342709012,1201.4597971648
1574850768.3155684,0.9815857410430908,0.000363120809,1275.5627849936
1574850768.3623428,1.02836012840271,0.00038285926,1347.2212575039998
1574850768.4089253,1.0749425888061523,0.000400356948,1410.7448640192
1574850768.4376504,1.1036677360534668,0.000416190363,1468.2264938352
1574850768.4845662,1.1505835056304932,0.000431970693,1525.5154038672
1574850768.5314384,1.197455644607544,0.000443977304,1569.1042044416
1574850768.5783076,1.2443249225616455,0.000455134548,1609.6094630592
1574850768.6095588,1.275576114654541,0.000464847311,1644.8706778544
1574850768.656427,1.322444200515747,0.000473911874,1677.7786673696
1574850768.7047563,1.3707735538482666,0.000480347313,1701.1418851152
1574850768.7370565,1.403073787689209,0.000487574376,1727.3790146304
1574850768.7839704,1.4499876499176025,0.000492191873,1744.1423757392
1574850768.8316357,1.4976530075073242,0.000496074557,1758.2380717328
1574850768.8717527,1.5377700328826904,0.000495399348,1755.7867929792
1574850768.9042525,1.5702698230743408,0.000468224287,1657.1304515248
1574850768.951164,1.6171813011169434,0.00042234268,1490.5618654720001
1574850768.9980357,1.664052963256836,0.00036740303,1291.108960112
1574850769.0416622,1.7076795101165771,0.000307258219,1072.7592382576001
1574850769.0804265,1.746443748474121,0.000240469351,830.2889318704
1574850769.1273015,1.793318748474121,0.000174568035,591.0407942639999
1574850769.1741722,1.8401894569396973,0.000117965043,385.5492921072
1574850769.2212539,1.8872711658477783,7.7140518e-05,237.3399365472
1574850769.2804818,1.9464991092681885,5.267188e-05,148.50899315200002
1574850769.328571,1.9945883750915527,3.6710873e-05,90.56415333919999
1574850769.3776052,2.0436224937438965,3.4358352e-05,82.02356110080001
1574850769.4236517,2.0896689891815186,3.4282915e-05,81.749694616
1574850769.4716976,2.1377148628234863,3.4859404e-05,83.8425802816
1574850769.5195966,2.1856138706207275,3.4754165e-05,83.460520616
1574850769.5677137,2.2337310314178467,3.4826808e-05,83.7242437632
1574850769.6178572,2.28387451171875,3.5097823e-05,84.70813661919999
1574850769.6658487,2.3318660259246826,3.4833327e-05,83.74791034079999
1574850769.7138407,2.3798580169677734,3.5258941e-05,85.29305940640002
1574850769.7617233,2.4277405738830566,3.5115518e-05,84.77237654720001
1574850769.8096826,2.4756999015808105,3.518723e-05,85.03271979200001
1574850769.8576703,2.5236876010894775,3.7326477e-05,92.79904210080001
1574850769.9056597,2.5716769695281982,8.2603656e-05,257.1733127424
1574850769.9536588,2.619676113128662,0.000123157166,404.3987754464
1574850770.0016344,2.667651653289795,0.00016282592,548.4122199679999
1574850770.0497587,2.715775966644287,0.000202264637,691.5905381647999
1574850770.0976117,2.7636289596557617,0.000238581561,823.4354990544
1574850770.1456285,2.811645746231079,0.000271538273,943.0815462991999
1574850770.1935856,2.859602928161621,0.000301733613,1052.7027086352
1574850770.2415752,2.907592535018921,0.000328507274,1149.9018075296
1574850770.2895627,2.955579996109009,0.000352279283,1236.2037090032
1574850770.3375697,3.003587007522583,0.000374688767,1317.5590997168
1574850770.385547,3.0515642166137695,0.000395106152,1391.6823742207998
1574850770.433576,3.0995934009552,0.000414052047,1460.4635514288
1574850770.4796674,3.1456847190856934,0.000431858003,1525.1062940912
1574850770.5277946,3.1938118934631348,0.000445497222,1574.6221147488
1574850770.5756514,3.241668701171875,0.00045813527,1620.503284208
1574850770.6236691,3.289686441421509,0.000470034778,1663.7032580512
1574850770.6717677,3.337785005569458,0.000479530543,1698.1766833072
1574850770.7216008,3.387618064880371,0.00048922468,1733.370278272
1574850770.7685027,3.4345200061798096,0.000496356748,1759.2625379392002
1574850770.817525,3.4835422039031982,0.00050172396,1778.747664384
1574850770.8570836,3.5231008529663086,0.000507562421,1799.9436131983998
1574850770.900415,3.566432237625122,0.000509692356,1807.6761292224003
1574850770.9474125,3.6134297847747803,0.000509055331,1805.3634736623999
1574850771.0099123,3.675929546356201,0.000484297052,1715.4810175808
1574850771.0567884,3.7228057384490967,0.000431281514,1523.0134084256
1574850771.1036131,3.7696304321289062,0.000365013257,1282.4331282128
1574850771.150526,3.8165433406829834,0.000293080695,1021.2891551280002
1574850771.1999876,3.8660049438476562,0.000221013092,759.6549291968
1574850771.2374449,3.9034621715545654,0.000154929236,519.7440983744
1574850771.2947164,3.960733652114868,0.000100708567,322.90138163679995
1574850771.3441763,4.010193586349487,6.6313893e-05,198.03495714719998
1574850771.3924062,4.0584235191345215,4.107412e-05,106.404485248
1574850771.436941,4.1029582023620605,2.8847717e-05,62.01775179680001
1574850771.4839432,4.149960517883301,2.8735027e-05,61.608642020800005
1574850771.5307705,4.1967878341674805,2.9265881e-05,63.53585438239999
1574850771.577682,4.243699312210083,2.9043294e-05,62.7277745376
1574850771.6245534,4.2905707359313965,2.9526651e-05,64.4825537904
1574850771.6818511,4.3478684425354,2.9479153e-05,64.3101170512
1574850771.7189267,4.384943962097168,2.9477291e-05,64.3033572464
1574850771.7658412,4.431858539581299,2.9798597e-05,65.4698265488
1574850771.8127215,4.478738784790039,2.9609539e-05,64.7834703856
1574850771.8596716,4.525688886642456,6.7856163e-05,203.63401415519996
1574850771.922165,4.588182210922241,0.000110523775,358.53451276
1574850771.9689088,4.634926080703735,0.000150014646,501.9021708384
1574850772.0164988,4.682516098022461,0.000190390274,648.4818507296
1574850772.0524776,4.718494892120361,0.000226501375,779.5795918
1574850772.0994816,4.765498876571655,0.000260942616,904.6150731263999
1574850772.1614296,4.827446937561035,0.000291940756,1017.1507205824
1574850772.203118,4.86913537979126,0.000319408253,1116.8687216911999
1574850772.2501185,4.916135787963867,0.000344598666,1208.3199970464
1574850772.2969916,4.963008880615234,0.000366462395,1287.694078808
1574850772.3438623,5.0098795890808105,0.000388503075,1367.7105634799998
1574850772.390732,5.05674934387207,0.000407721847,1437.4823933488
1574850772.4376068,5.103624105453491,0.000426472165,1505.553547816
1574850772.4844778,5.1504950523376465,0.000441834331,1561.3243552623999
1574850772.5313504,5.1973676681518555,0.000455066562,1609.3626466848
1574850772.5938435,5.2598607540130615,0.00046828296,1657.343457984
1574850772.6403165,5.306333780288696,0.000477764755,1691.766166552
1574850772.6867902,5.352807521820068,0.000487497076,1727.0983847104
1574850772.736993,5.403010368347168,0.000495993532,1757.9439185728
1574850772.7839952,5.450012445449829,0.000502965413,1783.2546353552002
1574850772.8308685,5.496885776519775,0.000510362908,1810.1105012032
1574850772.8777373,5.543754577636719,0.000512634404,1818.3569402816
1574850772.9246056,5.590622901916504,0.000512071885,1816.3147713040003
1574850772.9714801,5.637497425079346,0.000511985272,1816.0003314688
1574850773.01822,5.684237241744995,0.000511506572,1814.2624589888
1574850773.0652242,5.731241464614868,0.000511580147,1814.5295656688002
1574850773.1187375,5.784754753112793,0.000511362217,1813.7383925968
1574850773.167851,5.8338682651519775,0.000511179678,1813.0757030111997
1574850773.205233,5.87125039100647,0.000508972444,1805.0625606975998
1574850773.2521029,5.9181201457977295,0.00047556404,1683.776690816
1574850773.2991064,5.965123653411865,0.000419015065,1478.481291976
1574850773.3616002,6.027617454528809,0.000351628289,1233.8403403856
1574850773.408472,6.07448935508728,0.000279676169,972.6253639376
1574850773.455348,6.121365308761597,0.000208731741,715.0687125264
1574850773.5020974,6.16811466217041,0.000145154074,484.2563502495999
1574850773.5490875,6.215104818344116,9.3763694e-05,297.68871469759995
1574850773.6001065,6.2661237716674805,6.2818639e-05,185.34578702560003
1574850773.636047,6.3020641803741455,3.9295293e-05,99.94663170719998
1574850773.6961823,6.362199544906616,2.9806048e-05,65.4968766592
1574850773.7359588,6.401976108551025,3.0613504e-05,68.42826492159999
1574850773.7829614,6.448978662490845,3.10326e-05,69.94975104
1574850773.8297105,6.495727777481079,3.1154603e-05,70.39267073120001
1574850773.8767078,6.542725086212158,3.1149015e-05,70.37238405599999
1574850773.9235775,6.589594841003418,3.1454489e-05,71.4813768656
1574850773.985958,6.651975393295288,3.1309202e-05,70.9539269408
1574850774.0329416,6.698958873748779,5.6692399e-05,163.1050853296
1574850774.079975,6.745992183685303,0.000101797283,326.8538562032
1574850774.1202157,6.786232948303223,0.000141946599,472.61193300959997
1574850774.1652067,6.831223964691162,0.000182271004,619.0056529216
1574850774.2190847,6.885102033615112,0.00021913927,752.852205808
1574850774.2706068,6.936624050140381,0.000253665261,878.1953635344
1574850774.3174798,6.983497142791748,0.00028489437,991.5695208479999
1574850774.364471,7.0304882526397705,0.000313023105,1093.688080392
1574850774.4180806,7.084097862243652,0.000338328071,1185.5552289584
1574850774.466302,7.132319211959839,0.000360329635,1265.429706904
1574850774.5144904,7.180507659912109,0.000382660888,1346.5010877952
1574850774.5621562,7.228173494338989,0.000402433798,1418.2846602592
1574850774.6102993,7.2763166427612305,0.000421416014,1487.1976972256
1574850774.6584558,7.324473142623901,0.000437485985,1545.538119944
1574850774.7063162,7.372333526611328,0.000451288186,1595.6456304544
1574850774.7537851,7.41980242729187,0.000464189798,1642.4836426592
1574850774.8014057,7.467422962188721,0.000475045294,1681.8934353376
1574850774.8504808,7.51649808883667,0.000485614873,1720.2652349392001
1574850774.8983006,7.564317941665649,0.000494769774,1753.5011875296
1574850774.9463053,7.612322568893433,0.000503053889,1783.5758386255998
1574850774.994451,7.660468339920044,0.000511222519,1813.2312329775998
1574850775.0422106,7.708227872848511,0.000512334518,1817.2682341472
1574850775.090307,7.756324291229248,0.000511890277,1815.6554616207998
1574850775.1380131,7.804030418395996,0.000511772931,1815.2294487024
1574850775.1862123,7.852229595184326,0.000511463732,1814.1069326528
1574850775.2341619,7.900179147720337,0.000511466525,1814.1170723599998
1574850775.2822554,7.948272705078125,0.000511327758,1813.6132926432
1574850775.3300953,7.996112585067749,0.000507541001,1799.8658500304
1574850775.3778806,8.043897867202759,0.000471062958,1667.4359627232
1574850775.4121754,8.078192710876465,0.000412381254,1454.3979045216
1574850775.459054,8.125071287155151,0.000343898311,1205.7774282543999
1574850775.5196373,8.185654640197754,0.000271321274,942.2937531295998
1574850775.567677,8.233694314956665,0.000199814327,682.6949327408
1574850775.6145477,8.280565023422241,0.000137420371,456.1799148784
1574850775.66142,8.327437400817871,8.7181106e-05,273.7912872224
1574850775.7135289,8.379546165466309,5.7892874e-05,167.4632897696
1574850775.7532327,8.419250011444092,3.5655685e-05,86.73339882399999
1574850775.8002036,8.46622085571289,2.7592294e-05,57.4600641376
1574850775.8470778,8.513095140457153,2.8703362e-05,61.493685404800004
1574850775.8939505,8.559967756271362,2.8736889e-05,61.6154018256
1574850775.940823,8.606840372085571,2.9040501e-05,62.7176348304
1574850775.999865,8.665882349014282,2.9123388e-05,63.01854779520001
1574850776.0356088,8.701626062393188,2.9129907e-05,63.042214372800004
1574850776.0982342,8.764251470565796,2.9369257e-05,63.9111506128
1574850776.1357906,8.801807880401611,2.9248185e-05,63.47161082400001
1574850776.1922069,8.858224153518677,2.9534101e-05,64.5096002704
1574850776.2363584,8.9023756980896,6.3704327e-05,188.56118874080005
1574850776.2833326,8.949349880218506,0.0001070695,345.9941128
1574850776.330211,8.996228218078613,0.000147286803,491.9990096112
1574850776.3770752,9.043092489242554,0.000187241472,637.0504399488
1574850776.4239461,9.089963436126709,0.000224287622,771.5427829088
1574850776.4814487,9.147465944290161,0.000258699991,896.4734473263999
1574850776.52034,9.186357259750366,0.000290086493,1010.4190041872
1574850776.5673146,9.23333191871643,0.00031805411,1111.952640944
1574850776.6141891,9.280206441879272,0.000342908315,1202.183346776
1574850776.661057,9.3270742893219,0.000365340151,1283.6198841904
1574850776.7289374,9.394954681396484,0.000386958942,1362.1047430368
1574850776.7645185,9.430535793304443,0.000406187959,1431.9137663535998
1574850776.8115184,9.477535724639893,0.000424472615,1498.294381496
1574850776.8582933,9.52431058883667,0.000438628718,1549.6866978271999
1574850776.9052622,9.571279525756836,0.000452041626,1598.3809190304
1574850776.9593992,9.62541651725769,0.00046405755,1642.00352952
1574850777.0036247,9.669641971588135,0.00047378242,1677.308697568
1574850777.050412,9.716429233551025,0.000484121032,1714.8419945727999
1574850777.0974116,9.763428926467896,0.000492705032,1746.0053481727998
1574850777.1442852,9.810302495956421,0.00050082244,1775.4747861760002
1574850777.2002232,9.866240501403809,0.000509183854,1805.8300635616001
1574850777.235094,9.901111364364624,0.000512424856,1817.5961972224
1574850777.297711,9.963728189468384,0.0005121883,1816.73740432
1574850777.344586,10.010603189468384,0.000511749648,1815.1449220992001
1574850777.3914583,10.057475566864014,0.00051168818,1814.9217686719999
1574850777.4417057,10.107722997665405,0.000511532649,1814.3571289295999
1574850777.476592,10.142609357833862,0.000511365011,1813.7485359344
1574850777.5235968,10.189614057540894,0.000511426479,1813.9716893615998
1574850777.5859604,10.251977682113647,0.000505741686,1793.3336168544
1574850777.6292646,10.295281887054443,0.000466115773,1649.4757022992
1574850777.6762626,10.34227991104126,0.000405882485,1430.804773544
1574850777.7217307,10.387748003005981,0.000336075202,1177.3764133408
1574850777.768599,10.434616327285767,0.000263497233,913.8893546832
1574850777.815602,10.481619358062744,0.000192392617,655.7511567568
1574850777.862474,10.528491258621216,0.000131015666,432.9282738464
1574850777.919594,10.585611343383789,8.2693063e-05,257.4978959152
1574850777.9677906,10.633807897567749,5.4468401e-05,155.03108299039997
1574850778.0146525,10.680669784545898,3.4065917e-05,80.96190507680001
1574850778.0615306,10.727547883987427,2.7487986e-05,57.0813843744
1574850778.1083994,10.77441668510437,2.8501265e-05,60.75999245599999
1574850778.1552737,10.821290969848633,2.8718263e-05,61.54778199520001
1574850778.2073908,10.873408079147339,2.8739683e-05,61.6255451632
1574850778.251316,10.917333364486694,2.9073097e-05,62.8359713488
1574850778.2982824,10.96429967880249,3.729295e-05,92.67732568000001
1574850778.3451886,11.011205911636353,8.4497035e-05,264.04703586399995
1574850778.4004402,11.066457509994507,0.00012489222,410.697715488
1574850778.4365466,11.102563858032227,0.000165320933,557.4701151632
1574850778.4834983,11.149515628814697,0.000204910524,701.1961663296
1574850778.5459952,11.212012529373169,0.000240541063,830.5492751152
1574850778.5928679,11.258885145187378,0.000274064951,952.2543981104001
1574850778.6397357,11.305752992630005,0.000303750858,1060.0261148832
1574850778.6880786,11.354095935821533,0.000330265611,1156.2852741744
1574850778.7363634,11.40238070487976,0.000353781506,1241.6573793824
1574850778.7833645,11.449381828308105,0.000375822186,1321.6738640544
1574850778.830239,11.496256351470947,0.000396433286,1396.5004014944
1574850778.8816233,11.547640562057495,0.000415737741,1466.5832949264
1574850778.9186091,11.58462643623352,0.000433329493,1530.4483913872
1574850778.9656146,11.631631851196289,0.000447547063,1582.0638575152
1574850779.0124826,11.678499937057495,0.000460078008,1627.5562002432
1574850779.059352,11.725369215011597,0.000472472981,1672.5549102224002
1574850779.1155736,11.781590938568115,0.000483150594,1711.3189164576002
1574850779.1623163,11.828333616256714,0.000492152758,1744.0003726432
1574850779.2156763,11.881693601608276,0.000500007533,1772.5163478032002
1574850779.2514238,11.917441129684448,0.000508268364,1802.5064686656
1574850779.3140428,11.98006010055542,0.000512100756,1816.4195845824001
1574850779.361297,12.027314186096191,0.000511560589,1814.4585623056
1574850779.407866,12.073883295059204,0.000511165708,1813.0249863232002
1574850779.4519687,12.117985963821411,0.000508990139,1805.1268006255998
1574850779.4989722,12.164989471435547,0.000475089997,1682.0557251088
1574850779.545844,12.211861371994019,0.000417727046,1473.8052677983999
1574850779.5930076,12.259024858474731,0.000349408016,1225.7798612863999
1574850779.6400108,12.306028127670288,0.000275926664,959.0131609856
1574850779.6969182,12.362935543060303,0.000203990377,697.8556646607999
1574850779.7372637,12.403280973434448,0.000140138902,466.04926982079996
1574850779.7841368,12.450154066085815,8.8843517e-05,279.8265041168
1574850779.840436,12.506453275680542,5.8422796e-05,169.38711859839998
1574850779.884885,12.550902366638184,3.5075471e-05,84.6269899184
1574850779.9318886,12.59790587425232,2.6880763e-05,54.87692199520001
1574850779.9787211,12.64473843574524,2.7707778e-05,57.87931725119999
1574850780.0255022,12.691519498825073,2.8092414e-05,59.2756997856
1574850780.0725064,12.738523721694946,2.8227456e-05,59.765956262399996
1574850780.1192486,12.785265922546387,2.8211623e-05,59.7084761392
1574850780.1662495,12.832266807556152,2.8491952e-05,60.726182540799996
1574850780.2193265,12.885343790054321,5.64605e-05,162.26319919999997
1574850780.2662778,12.932295083999634,0.000101180747,324.6155839088
1574850780.3221505,12.988167762756348,0.000141255558,470.10317776320005
1574850780.3672688,13.033286094665527,0.000180949457,614.2079086928001
1574850780.414143,13.08016037940979,0.000218296424,749.7923376896
1574850780.4610145,13.127031803131104,0.000252607279,874.3544656815999
1574850780.5078883,13.173905611038208,0.000284596346,990.4875745183999
1574850780.5547132,13.220730543136597,0.000312976539,1093.5190271856
1574850780.601504,13.267521381378174,0.000338349491,1185.6329921264
1574850780.6484985,13.314515829086304,0.000361220911,1268.6653952944
1574850780.704821,13.370838403701782,0.000383173116,1348.3606803264001
1574850780.7532682,13.419285535812378,0.000402974896,1420.2490624384
1574850780.7996023,13.465619564056396,0.000421852805,1488.783423272
1574850780.8362029,13.502220153808594,0.000437352806,1545.0546269023998
1574850780.883176,13.549193382263184,0.000451594591,1596.7580031664
1574850780.9456701,13.611687421798706,0.000464391895,1643.217335608
1574850780.992544,13.65856122970581,0.000475625508,1683.9998442432
1574850781.0394166,13.70543384552002,0.000485887751,1721.2558912304
1574850781.0861588,13.75217604637146,0.000494988635,1754.295740504
1574850781.1331594,13.799176692962646,0.000504001975,1787.01777004
1574850781.180031,13.846048355102539,0.00051191356,1815.7399882239997
1574850781.2214284,13.88744568824768,0.000512070954,1816.3113914015998
1574850781.2793164,13.94533371925354,0.000511758961,1815.1787320144
1574850781.3197517,13.985769033432007,0.000511461869,1814.1001692176
