Time, Time Since Begin, V/V Raw Data, Force 
1574945718.1858673,0.26317381858825684,0.000180129893,611.2325635471999
1574945718.2262855,0.3035919666290283,0.000180690549,613.2679690896
1574945718.2663515,0.3436579704284668,0.000180989504,614.3532953216
1574945718.313625,0.3909316062927246,0.000180912204,614.0726654016
1574945718.3541965,0.4315030574798584,0.000180623494,613.0245326176
1574945718.3944824,0.4717888832092285,0.000180170871,611.3813300784
1574945718.434125,0.5114314556121826,0.000179692172,609.6434612288
1574945718.482098,0.5594046115875244,0.000179411843,608.6257548272
1574945718.522073,0.5993795394897461,0.000179443508,608.7407114432
1574945718.5620806,0.6393871307373047,0.000179720111,609.7448909744
1574945718.6020298,0.6793363094329834,0.00018015597,611.327233488
1574945718.6500003,0.7273068428039551,0.000180622563,613.0211527152
1574945718.6899817,0.7672882080078125,0.000180877745,613.947565448
1574945718.7299545,0.8072609901428223,0.000180862844,613.8934688575999
1574945718.769932,0.8472385406494141,0.000184712,627.8674447999999
1574945718.8178806,0.8951871395111084,0.0002097385,718.7236504
1574945718.857856,0.9351625442504883,0.00023413077,807.277347408
1574945718.8979933,0.9752998352050781,0.000240373425,829.94068212
1574945718.937733,1.0150394439697266,0.000240367837,829.9203954448
1574945718.9859996,1.0633060932159424,0.000240322202,829.7547221408
1574945719.0261943,1.1035008430480957,0.000240392983,830.0116854832
1574945719.0658612,1.1431677341461182,0.000240422785,830.119878664
1574945719.105525,1.1828315258026123,0.000240367837,829.9203954448
1574945719.1542802,1.2315866947174072,0.000240322202,829.7547221408
1574945719.1942825,1.2715890407562256,0.000240232795,829.4301389679999
1574945719.2337503,1.3110568523406982,0.00024017971,829.2374191839999
1574945719.2742786,1.3515851497650146,0.000240148045,829.122462568
1574945719.321692,1.398998498916626,0.000240115449,829.0041260496
1574945719.362089,1.4393954277038574,0.000240150839,829.1326059055999
1574945719.4022393,1.4795458316802979,0.000240170397,829.2036092688
1574945719.4422245,1.519531011581421,0.000240198337,829.3050426448
1574945719.4894068,1.5667133331298828,0.000237487257,819.4627378127999
1574945719.530341,1.60764741897583,0.000232545659,801.5227604336001
1574945719.5700898,1.6473963260650635,0.000228510238,786.8725680352
1574945719.6096456,1.6869521141052246,0.000228210352,785.7838619007999
1574945719.6580827,1.735389232635498,0.000228188001,785.7027188303999
1574945719.6978455,1.7751519680023193,0.000228181481,785.6790486223999
1574945719.746293,1.8235995769500732,0.000228304416,786.1253518464
1574945719.793488,1.8707945346832275,0.000228162855,785.611428792
1574945719.8423433,1.9196498394012451,0.000228296034,786.0949218336
1574945719.890326,1.967632532119751,0.000233247876,804.0720890304
1574945719.937648,2.0149545669555664,0.000236641616,816.3927227264
1574945719.9862862,2.0635926723480225,0.000236678869,816.5279660176001
1574945720.0336854,2.110991954803467,0.000236519612,815.9497994047999
1574945720.0821238,2.1594302654266357,0.000236613676,816.2912893504
1574945720.1301875,2.207494020462036,0.00023657456,816.149282624
1574945720.1774352,2.254741668701172,0.000236533582,816.0005160928
1574945720.2254372,2.302743673324585,0.000236623921,816.3284827983999
1574945720.2742774,2.351583957672119,0.00023653172,815.993756288
1574945720.3221726,2.3994791507720947,0.000236597843,816.2338092272
1574945720.370272,2.4475784301757812,0.000236554071,816.0748993584
1574945720.4176342,2.494940757751465,0.000236523338,815.9633262752
1574945720.466405,2.5437114238739014,0.000235049054,810.6110856416
1574945720.5138822,2.591188669204712,0.000234401785,808.261240264
1574945720.5622752,2.6395816802978516,0.000235116109,810.8545221136
1574945720.6096737,2.6869802474975586,0.000235242769,811.3143485776
1574945720.6581073,2.7354137897491455,0.000234241597,807.6796937488
1574945720.7060943,2.783400774002075,0.000235795975,813.32270764
1574945720.7542334,2.8315398693084717,0.00023433473,808.017803792
1574945720.8018858,2.879192352294922,0.000235297717,811.5138317968
1574945720.8498983,2.9272048473358154,0.000235678628,812.8966910912
1574945720.8974295,2.974735975265503,0.000237035565,817.8229151759999
1574945720.9455795,3.022886037826538,0.000237056985,817.900678344
1574945720.994274,3.071580410003662,0.000236967579,817.5760988016
1574945721.0415027,3.118809223175049,0.000237132423,818.1745484592
1574945721.0902724,3.167578935623169,0.00023698993,817.657241872
1574945721.1375644,3.2148709297180176,0.000237022527,817.7755820207999
1574945721.1855905,3.26289701461792,0.000237068161,817.9412516944
1574945721.2335958,3.3109023571014404,0.000236909837,817.3664722448
1574945721.2822309,3.359537363052368,0.00023703929,817.8364384160001
1574945721.3304682,3.4077746868133545,0.000236938708,817.4712855232
1574945721.3773851,3.4546916484832764,0.000236994587,817.6741486448
1574945721.4264355,3.503741979598999,0.000237033702,817.8161517408
1574945721.4735417,3.5508482456207275,0.000236719847,816.6767325488
1574945721.522183,3.599489450454712,0.000231261365,796.860259496
1574945721.570129,3.647435426712036,0.000227677636,783.8498897344
1574945721.6182806,3.695587158203125,0.000227789395,784.255619608
1574945721.6662712,3.743577718734741,0.000227978453,784.9419757712
1574945721.71427,3.791576623916626,0.000227736309,784.0628961936
1574945721.7619474,3.8392539024353027,0.000227970071,784.9115457583999
1574945721.810282,3.8875885009765625,0.000227860175,784.51257932
1574945721.858328,3.9356346130371094,0.000227850862,784.4787694048
1574945721.906284,3.983590602874756,0.000228016637,785.0805989648
1574945721.9539557,4.031262159347534,0.000227738172,784.0696596288
1574945722.00226,4.079566478729248,0.000227977522,784.9385958688
1574945722.049808,4.127114534378052,0.000227829441,784.4010026064
1574945722.0981143,4.175420761108398,0.000231266022,796.8771662688
1574945722.146372,4.2236785888671875,0.000236408785,815.547453064
1574945722.194347,4.271653413772583,0.000236263499,815.0200067696
1574945722.2421288,4.319435358047485,0.000236401334,815.5204029536001
1574945722.290074,4.367380619049072,0.000236280262,815.0808631648
1574945722.3396666,4.416973114013672,0.00023624301,814.945623504
1574945722.3857818,4.463088274002075,0.000236324035,815.2397766639999
1574945722.4343877,4.5116941928863525,0.000236188062,814.7461402847999
1574945722.4818554,4.559161901473999,0.000236297958,815.1451067232
1574945722.530268,4.607574462890625,0.000236248598,814.9659101791999
1574945722.5780067,4.65531325340271,0.000236216933,814.8509535631999
1574945722.6262736,4.703580141067505,0.000236296095,815.138343288
1574945722.6741,4.75140643119812,0.000236175023,814.6988034991999
1574945722.7222667,4.799573183059692,0.000236322172,815.2330132288
1574945722.7703114,4.847617864608765,0.000236217864,814.8543334656
1574945722.830434,4.907740592956543,0.000236223452,814.8746201408
1574945722.8662581,4.9435646533966064,0.000234892592,810.0430659968
1574945722.9137955,4.991101980209351,0.000234786421,809.6576227984
1574945722.9618628,5.0391693115234375,0.00023488421,810.012635984
1574945723.0101151,5.087421655654907,0.000234809704,809.7421494015999
1574945723.0578754,5.135181903839111,0.000234767795,809.590002968
1574945723.1059878,5.183294296264648,0.000234859064,809.9213459456
1574945723.1538718,5.231178283691406,0.000234779902,809.6339562208
1574945723.2018256,5.279132127761841,0.000234899111,810.0667325743999
1574945723.2497675,5.32707405090332,0.000234766863,809.5866194352
1574945723.2980394,5.375345945358276,0.00023682788,817.068935552
1574945723.3462253,5.423531770706177,0.000236849301,817.1467023504
1574945723.3942254,5.471531867980957,0.000236716121,816.6632056784
1574945723.4422643,5.519570827484131,0.000236842781,817.1230321423999
1574945723.4903672,5.567673683166504,0.000236748718,816.7815458272
1574945723.537792,5.615098476409912,0.000236786902,816.9201690208
1574945723.5861647,5.663471221923828,0.000236793421,816.9438355984
1574945723.6338298,5.711136341094971,0.000236749649,816.7849257296
1574945723.6822243,5.759530782699585,0.00023679249,816.9404556960001
1574945723.7296364,5.806942939758301,0.000236771069,816.8626888976
1574945723.7778988,5.855205297470093,0.000236835331,817.0959856623999
1574945723.8260245,5.90333104133606,0.000236833468,817.0892222271999
1574945723.8742626,5.951569080352783,0.000236712396,816.6496824384
1574945723.9222672,5.999573707580566,0.000236850232,817.1500822528
1574945723.9702635,6.047569990158081,0.000235674903,812.8831678512
1574945724.0180614,6.095367908477783,0.000229920261,791.9915155344
1574945724.0662622,6.143568754196167,0.000227689743,783.8938429872001
1574945724.1140833,6.191389799118042,0.00022753235,783.32244344
1574945724.161414,6.238720417022705,0.000227780081,784.2218060624
1574945724.2103798,6.287686347961426,0.000227619894,783.6402631776
Time, Time Since Begin, V/V Raw Data, Force 
