Time, Time Since Begin, V/V Raw Data, Force 
1574850694.6520753,0.445436954498291,0.000209646299,718.3889238895999
1574850694.6833222,0.4766838550567627,0.000121514313,398.4345619152
1574850694.730193,0.5235545635223389,6.0379505e-05,176.49075495200003
1574850694.7770684,0.5704300403594971,1.2934208e-05,4.245348723200003
1574850694.8239481,0.6173098087310791,-2.5553629e-05,-135.4808947216
1574850694.8551502,0.6485118865966797,-4.9826689e-05,-223.6018117456
1574850694.9020715,0.6954331398010254,-5.2089803e-05,-231.81782081120002
1574850694.9489455,0.742307186126709,-5.1161274e-05,-228.44688912960004
1574850694.9801974,0.7735590934753418,-4.8832968e-05,-219.9942070272
1574850695.0270703,0.8204319477081299,8.486211e-06,-11.902659585599999
1574850695.0701728,0.8635344505310059,0.000109199435,353.726628824
1574850695.121575,0.9149367809295654,0.000248508528,859.4743600511999
1574850695.1536908,0.9470524787902832,0.00039441511,1389.173615344
1574850695.2006667,0.9940283298492432,0.000532442704,1890.2689926015998
1574850695.2319176,1.0252792835235596,0.000644942746,2298.6891450784
1574850695.278791,1.0721526145935059,0.000724384561,2587.0947102544005
1574850695.3256648,1.1190264225006104,0.000759677961,2715.2238696144004
1574850695.3569176,1.1502792835235596,0.00075749401,2707.295253904
1574850695.4036882,1.197049856185913,0.000755828805,2701.2498936720003
1574850695.4506636,1.2440252304077148,0.000754834153,2697.6389090512002
1574850695.49647,1.2898316383361816,0.000754133798,2695.0963402592
1574850695.5364704,1.3298320770263672,0.000753541477,2692.9459781008
1574850695.56922,1.362581729888916,0.00075306464,2691.214869056
1574850695.625382,1.41874361038208,0.000752632506,2689.6460497824
1574850695.653366,1.4467277526855469,0.000752223656,2688.1617607424
1574850695.7003522,1.4937138557434082,0.000751879066,2686.9107612064
1574850695.731605,1.5249667167663574,0.000727024861,2596.6800553744
1574850695.7784765,1.571838140487671,0.000656771474,2341.6321592096
1574850695.8253562,1.618717908859253,0.000561897643,1997.2022031472002
1574850695.8722262,1.6655879020690918,0.000452594832,1600.3892780928
1574850695.9137344,1.7070960998535156,0.000337222591,1181.5418943664
1574850695.958827,1.7521886825561523,0.000228707679,787.5893578416
1574850695.987987,1.781348705291748,0.000133634545,442.435852168
1574850696.034994,1.8283555507659912,6.5909699e-05,196.5675712496
1574850696.081735,1.8750965595245361,1.4563091e-05,10.158845566400004
1574850696.1296802,1.923041820526123,-2.9200688e-05,-148.72117771519999
1574850696.1696277,1.962989330291748,-6.0239807e-05,-261.4055953328
1574850696.2069993,2.0003609657287598,-6.1515719e-05,-266.0376662576
1574850696.2537508,2.047112464904785,-6.0434453e-05,-262.1122381712
1574850696.3007488,2.0941104888916016,-5.9954822e-05,-260.3709857888
1574850696.35943,2.152791738510132,-6.139278e-06,-64.9990348512
1574850696.403943,2.1973047256469727,0.000105199404,339.2049162816
1574850696.4508626,2.2442243099212646,0.000264414586,917.2197130144001
1574850696.497689,2.291050672531128,0.000428498723,1512.9107639792
1574850696.544613,2.3379745483398438,0.00057581719,2047.735726576
1574850696.5914826,2.3848443031311035,0.000685944222,2447.5409035488005
1574850696.653482,2.4468436241149902,0.000747357495,2670.495649848
1574850696.6847694,2.478131055831909,0.000753927976,2694.3491240704
1574850696.7317364,2.5250980854034424,0.000752229244,2688.1820474176
1574850696.7786088,2.5719704627990723,0.000751272775,2684.7096823600004
1574850696.8412771,2.634638786315918,0.000750706531,2682.6539901424003
1574850696.8860805,2.6794421672821045,0.000750112347,2680.4968645488
1574850696.9330513,2.7264130115509033,0.000741291791,2648.4747180464
1574850696.9799285,2.7732901573181152,0.000676169991,2412.0565353264
1574850697.0268044,2.8201661109924316,0.000572515652,2035.7498230208
1574850697.0736759,2.867037534713745,0.000448500738,1585.5260792351999
1574850697.129743,2.923104763031006,0.000316911377,1107.8040630608
1574850697.1772997,2.9706614017486572,0.000195899047,668.4809002288
1574850697.2255807,3.018942356109619,9.6652657e-05,308.17680597279997
1574850697.27246,3.065821647644043,3.2541342e-05,75.42708799680001
1574850697.3192394,3.1126010417938232,-1.9366853e-05,-113.0204231312
1574850697.3685205,3.161882162094116,-5.7529658e-05,-251.56667040319996
1574850697.4172246,3.2105863094329834,-6.2216073e-05,-268.5802314192
1574850697.4640985,3.257460117340088,-5.93476e-05,-258.16652704
1574850697.51097,3.3043317794799805,-5.1551498e-05,-229.86355833919998
1574850697.5500915,3.3434531688690186,2.4412759e-05,45.91708027359999
1574850697.5970964,3.390458106994629,0.000158536248,532.8389947392001
1574850697.6539078,3.4472694396972656,0.000325654633,1139.5455796432
1574850697.700913,3.494274616241455,0.000487840734,1728.3460007136
1574850697.7477868,3.5411484241485596,0.000623389147,2220.4409592688003
1574850697.8019087,3.5952703952789307,0.000717847608,2563.3629560832005
1574850697.8380835,3.6314451694488525,0.00075903628,2712.894310912
1574850697.884998,3.6783597469329834,0.000756820664,2704.8507385856
1574850697.9318695,3.725231170654297,0.000755460002,2699.9109912608
1574850697.9787517,3.77211332321167,0.000754632056,2696.9052161024
1574850698.0412514,3.834613084793091,0.000754103065,2694.984767176
1574850698.089008,3.8823697566986084,0.000753505155,2692.8141147120004
1574850698.1341527,3.9275143146514893,0.000753239729,2691.8505121616
1574850698.1703594,3.9637210369110107,0.000749480911,2678.2044992944
1574850698.2329807,4.026342391967773,0.000692745671,2472.2328839984
1574850698.278146,4.071507692337036,0.000591428019,2104.4092801776
1574850698.3261378,4.119499444961548,0.000468020327,1656.3899951408
1574850698.371377,4.164738655090332,0.000334716402,1172.4434258208
1574850698.4182508,4.2116124629974365,0.000209990889,719.6399234256
1574850698.465169,4.258530616760254,0.000106049702,342.2918381408
1574850698.5217285,4.315090179443359,3.8051046e-05,95.4295173984
1574850698.5660045,4.359366178512573,-1.6487204e-05,-102.56614540160001
1574850698.617882,4.411243677139282,-5.8611855e-05,-255.495478392
1574850698.6555338,4.448895454406738,-6.8049878e-05,-289.7592770912
1574850698.7022836,4.49564528465271,-6.1796978e-05,-267.0587489312
1574850698.7615755,4.554937124252319,-5.8903359e-05,-256.5537545136
1574850698.8025036,4.595865249633789,-5.8802776e-05,-256.1885979904
1574850698.8494797,4.642841339111328,-2.9364601e-05,-149.31624747040001
1574850698.8963501,4.689711809158325,5.9071928e-05,171.74372741119998
1574850698.9432275,4.736589193344116,0.000210624188,721.9390521152
1574850698.9901023,4.783463954925537,0.000377383083,1327.3405445232
1574850699.036846,4.830207586288452,0.000534888357,1899.1476912527999
1574850699.0838478,4.877209424972534,0.000659662299,2352.1270102896
1574850699.1376677,4.931029319763184,0.000741309486,2648.5389579744
1574850699.1846724,4.978034019470215,0.00076384563,2730.354175152
1574850699.241801,5.035162687301636,0.000761318952,2721.1813233408
1574850699.2873151,5.080676794052124,0.000760182738,2717.0564120352
1574850699.3343093,5.127671003341675,0.000759511255,2714.6186601520003
1574850699.381196,5.174557685852051,0.000758938491,2712.5392977264
1574850699.4280694,5.221431016921997,0.000758471899,2710.8453821296002
1574850699.4749458,5.268307447433472,0.000757454894,2707.1532471776
1574850699.5217729,5.315134525299072,0.000712538138,2544.0874561952
1574850699.5686939,5.362055540084839,0.000616144389,2194.1395898256
1574850699.624554,5.41791558265686,0.000494309701,1751.8309385103998
1574850699.668965,5.462326765060425,0.000359221362,1261.4062326048002
1574850699.720281,5.5136425495147705,0.000230397098,793.7226245792
1574850699.768952,5.562313556671143,0.00012076553,395.71618011199996
1574850699.8158298,5.609191417694092,4.7222711e-05,128.7263300144
1574850699.8627055,5.656067132949829,-9.781681e-06,-78.22241470239999
1574850699.9095798,5.702941417694092,-5.6921504e-05,-249.35882812159997
1574850699.9564586,5.749820232391357,-7.3458999e-05,-309.3965499696
1574850700.0032,5.7965617179870605,-7.0138834e-05,-297.3430229536
1574850700.0501213,5.843482971191406,-6.9439411e-05,-294.8038376944
1574850700.0970802,5.89044189453125,-6.9078058e-05,-293.4919817632
1574850700.1386976,5.932059288024902,-6.8780966e-05,-292.4134189664
1574850700.19852,5.991881608963013,-4.8540533e-05,-218.9325510032
1574850700.2355175,6.028879165649414,3.7978403e-05,95.16579425119998
1574850700.2978961,6.091257810592651,0.000182691962,620.5338988448
1574850700.344888,6.138249635696411,0.000349957496,1227.7746934784
1574850700.3917675,6.185129165649414,0.000508854166,1804.6331642464
1574850700.4386423,6.232003927230835,0.000638207421,2274.2372211984
1574850700.4855158,6.27887749671936,0.000724920072,2589.0388293888004
1574850700.53239,6.325751781463623,0.000757512636,2707.3628737344
1574850700.5792603,6.372622013092041,0.000754858367,2697.7268155568004
1574850700.6315346,6.424896240234375,0.000753865577,2694.1225907408
1574850700.68129,6.474651575088501,0.000753314234,2692.1209951136
1574850700.7191036,6.512465238571167,0.000752732158,2690.0078264032004
1574850700.7661107,6.559472322463989,0.000752432272,2688.9191202688003
1574850700.8129857,6.606347322463989,0.000752124935,2687.803364024
1574850700.8598595,6.653221130371094,0.000725283287,2590.3574451248
1574850700.9067347,6.700096368789673,0.000641436316,2285.9594016064
1574850700.9691017,6.762463331222534,0.000528804027,1877.0591396208001
1574850701.0161078,6.80946946144104,0.000398879871,1405.3824836784
1574850701.0629797,6.856341361999512,0.000269831158,936.8840360032001
1574850701.1000333,6.893394947052002,0.000155357644,521.2993907776
1574850701.1604066,6.953768253326416,7.0507638e-05,213.25992899520003
1574850701.2049396,6.998301267623901,1.3064593e-05,4.718698427199996
1574850701.2518625,7.045224189758301,-3.6917627e-05,-176.73675306080003
1574850701.2987347,7.092096328735352,-6.4701773e-05,-277.6043166992
1574850701.3456042,7.138965845108032,-6.3587911e-05,-273.5605520944
1574850701.3924847,7.185846328735352,-6.2666833e-05,-270.21667052320004
1574850701.4393597,7.232721328735352,-6.2311999e-05,-268.9284811696
1574850701.4861321,7.279493808746338,-6.1913393e-05,-267.4813819472
1574850701.5331082,7.326469898223877,-3.6923215e-05,-176.75703973600002
1574850701.5799809,7.373342514038086,5.0231814e-05,139.65057754560002
1574850701.6561275,7.449489116668701,0.000198693015,678.6241216559999
1574850701.689502,7.482863664627075,0.000365816988,1285.3509932352
1574850701.7376087,7.530970335006714,0.000525387004,1864.6539793216
1574850701.7845962,7.57795786857605,0.000653540716,2329.9032153664
1574850701.831471,7.624832630157471,0.000739441253,2641.7565248912006
1574850701.8783457,7.671707391738892,0.000766268,2739.1483472
1574850701.9252164,7.718578100204468,0.000763582066,2729.3973324064004
1574850701.9720914,7.765453100204468,0.00076259207,2725.803250928
1574850702.0189717,7.812333345413208,0.000761844218,2723.0882490272
1574850702.0658455,7.8592071533203125,0.000761315227,2721.1678001008004
1574850702.119857,7.91321873664856,0.000760953873,2719.8559405392
1574850702.1566784,7.950040102005005,0.000757182948,2706.1659744192
1574850702.2035768,7.996938467025757,0.000701719895,2504.812906808
1574850702.266049,8.059410572052002,0.000600186177,2136.2048969808
1574850702.3130531,8.106414794921875,0.000475058332,1681.9407684928
1574850702.3599305,8.153292179107666,0.000338531099,1186.2923018096
1574850702.4068067,8.200168371200562,0.000211698934,725.8408099936
1574850702.453548,8.246909618377686,0.000106167048,342.7178510592
1574850702.500554,8.293915748596191,3.7440099e-05,93.21153540959999
1574850702.5474298,8.340791463851929,-1.926627e-05,-112.655266608
1574850702.6005342,8.393895864486694,-6.3630752e-05,-273.71608206080003
1574850702.6373317,8.43069338798523,-7.4937008e-05,-314.7623138432
1574850702.6843357,8.477697372436523,-7.2782859e-05,-306.9418913136
1574850702.7312102,8.524571895599365,-6.8506226e-05,-291.4160028704
1574850702.79371,8.587071657180786,-6.8167225e-05,-290.18529364
1574850702.8405852,8.633946895599365,-6.7912973e-05,-289.2622571792
1574850702.8873272,8.680688858032227,-6.7801215e-05,-288.856530936
1574850702.9343286,8.72769021987915,-6.7584217e-05,-288.06874139679996
1574850702.9812086,8.774570226669312,-6.7461282e-05,-287.6224381728
Time, Time Since Begin, V/V Raw Data, Force 
