Time, Time Since Begin, V/V Raw Data, Force 
1574851155.101486,0.22637653350830078,-3.2425e-05,-160.42672
1574851155.3618798,0.4867703914642334,-3.1433068e-05,-156.8256100672
1574851155.3931258,0.5180163383483887,-3.1287782e-05,-156.2981637728
1574851155.4401278,0.5650184154510498,-3.1122006e-05,-155.6963305824
1574851155.4870002,0.6118907928466797,-3.0768104e-05,-154.4115247616
1574851155.533871,0.6587615013122559,1.0989606e-05,-2.814334377599998
1574851155.5651205,0.6900110244750977,6.04745e-05,176.8356248
1574851155.611992,0.7368824481964111,0.000115328468,375.9774702272
1574851155.6431181,0.7680087089538574,0.000172174536,582.3514354944
1574851155.6965728,0.8214633464813232,0.000228597783,787.1903914032
1574851155.7439694,0.8688600063323975,0.00028285943,984.181874672
1574851155.784081,0.9089715480804443,0.000334773213,1172.6496724751998
1574851155.8204145,0.9453051090240479,0.000384939834,1354.7745733536
1574851155.8619158,0.9868063926696777,0.000430678017,1520.8224729168
1574851155.9087913,1.033681869506836,0.000471433625,1668.7816321999999
1574851155.9401665,1.0650570392608643,0.000508880243,1804.7278341872
1574851155.987038,1.1119284629821777,0.000543348491,1929.8613617264
1574851156.0339115,1.1588020324707031,0.000573325902,2038.6913546208
1574851156.0651572,1.1900477409362793,0.000600202009,2136.2623734736
1574851156.1120307,1.2369213104248047,0.000626436435,2231.503833624
1574851156.1595964,1.284487009048462,0.000651938841,2324.0877683664003
1574851156.1964946,1.321385145187378,0.000675076619,2408.0871576176
1574851156.2433722,1.368262767791748,0.000696404837,2485.5171202448
1574851156.274744,1.399634599685669,0.00071339868,2547.211567872
1574851156.3216145,1.446505069732666,0.000728094019,2600.5615265776005
1574851156.3656893,1.4905798435211182,0.000739800744,2643.0616210176004
1574851156.4126925,1.5375831127166748,0.000751913525,2687.03586116
1574851156.4438071,1.5686976909637451,0.000764463097,2732.5958273488004
1574851156.4908082,1.6156988143920898,0.000774187967,2767.9009953968
1574851156.537683,1.6625735759735107,0.000783844851,2802.9593470704003
1574851156.5809858,1.705876350402832,0.000792744569,2835.2688832976
1574851156.6104188,1.735309362411499,0.000799590722,2860.1231571488
1574851156.6574206,1.782311201095581,0.000798991881,2857.9491247824003
1574851156.7042868,1.8291773796081543,0.000798767433,2857.1342887632004
1574851156.7511618,1.8760523796081543,0.00079861097,2856.566265488
1574851156.7824068,1.9072973728179932,0.000798338093,2855.5756128272
1574851156.8402133,1.9651038646697998,0.000797360204,2852.0254846016005
1574851156.8764493,2.001339912414551,0.000796946697,2850.5242887888003
1574851156.923447,2.048337459564209,0.000797652639,2853.0871406256
1574851156.9703176,2.095208168029785,0.000796291977,2848.1473933008
1574851157.0299203,2.154810905456543,0.000797222368,2851.5250847872003
1574851157.0779765,2.202867031097412,0.000796580687,2849.1955260848003
1574851157.1191633,2.244053840637207,0.000796289183,2848.1372499632002
1574851157.1815348,2.3064253330230713,0.000797059387,2850.9333985648004
1574851157.2128146,2.337705135345459,0.000795755535,2846.1998942640002
1574851157.2596438,2.3845343589782715,0.000796777196,2849.9089323584003
1574851157.306647,2.431537628173828,0.00079613924,2847.592896896
1574851157.3606744,2.485564947128296,0.000795888714,2846.6833873056003
1574851157.407677,2.5325675010681152,0.000796686858,2849.5809692832004
1574851157.4545443,2.579434871673584,0.000795752741,2846.1897509264004
1574851157.5108006,2.6356911659240723,0.00075955037,2714.7606632480006
1574851157.5588682,2.6837587356567383,0.000673320144,2401.7104507776003
1574851157.605842,2.7307326793670654,0.000559980981,1990.2439534224002
1574851157.6527138,2.777604341506958,0.000432577915,1527.719862616
1574851157.6995816,2.824472188949585,0.000299162231,1043.3675634224
1574851157.7464585,2.8713490962982178,0.00018043071,612.324649584
1574851157.7932029,2.91809344291687,8.8121742e-05,277.2061721568
1574851157.8452122,2.9701027870178223,3.0077994e-05,66.4841494176
1574851157.893202,3.018092632293701,-2.0321459e-05,-116.48602475359999
1574851157.9404242,3.065314769744873,-6.0761347e-05,-263.2989941488
1574851157.9924178,3.1173083782196045,-6.5501779e-05,-280.5086584816
1574851158.0401404,3.1650309562683105,-6.4132735e-05,-275.538481144
1574851158.0870419,3.211932420730591,-6.3927844e-05,-274.7946448576
1574851158.135078,3.2599685192108154,-6.2718987e-05,-270.40601040480004
1574851158.1714065,3.296297073364258,-6.3809566e-05,-274.3652484064
1574851158.2182775,3.343168020248413,-6.2510371e-05,-269.6486508784
1574851158.2651489,3.3900394439697266,-6.2942505e-05,-271.217470152
1574851158.3275428,3.4524333477020264,-6.3017942e-05,-271.4913366368
1574851158.3762078,3.501098394393921,-6.2011182e-05,-267.8363951328
1574851158.4241784,3.5490689277648926,-4.9412251e-05,-222.09723603039998
1574851158.4690514,3.5939419269561768,1.6221777e-05,16.180539220800007
1574851158.5098722,3.634762763977051,7.4496493e-05,227.74106818719997
1574851158.5568697,3.681760311126709,0.000137339346,455.8857617184
1574851158.6037416,3.7286322116851807,0.000204352662,699.1709041248
1574851158.6506128,3.775503396987915,0.000265761279,922.1087472816
1574851158.6974807,3.822371244430542,0.000326892361,1144.0390273744
1574851158.7598498,3.8847403526306152,0.000383386388,1349.1349429952
1574851158.8068523,3.9317429065704346,0.000435595401,1538.6745437904
1574851158.8549297,3.9798202514648438,0.000482168049,1707.7518850896001
1574851158.8916242,4.016514778137207,0.000521626323,1851.0012030192
1574851158.9512284,4.0761189460754395,0.000558680855,1985.523975992
1574851158.993134,4.118024587631226,0.000590446405,2100.8456287120002
1574851159.040134,4.165024518966675,0.000620948151,2211.5791673904005
1574851159.0870006,4.211891174316406,0.000651181675,2321.3389529200003
1574851159.1437118,4.26860237121582,0.000676108524,2411.8333855296
1574851159.1841362,4.309026718139648,0.000699998811,2498.5646834544
1574851159.2310066,4.3558971881866455,0.000717989169,2563.8768791376
1574851159.2777717,4.40266227722168,0.000734061003,2622.2240652912005
1574851159.3247468,4.449637413024902,0.000751443207,2685.3284186928004
1574851159.377781,4.502671480178833,0.000765934587,2737.9379246448
1574851159.429289,4.554179668426514,0.000781650655,2794.993537912
1574851159.477677,4.602567672729492,0.000793875195,2839.373507928
1574851159.5246515,4.6495420932769775,0.000801743008,2867.9368162432
1574851159.5715246,4.696415185928345,0.000809584744,2896.4054546176003
1574851159.618393,4.74328351020813,0.000814237632,2913.2972992128
1574851159.6652663,4.790156841278076,0.000820614398,2936.4475104992002
1574851159.712141,4.837031602859497,0.000824250281,2949.6472201424
1574851159.7589097,4.883800268173218,0.000826019794,2956.0712601376
1574851159.8058834,4.930773973464966,0.000826141797,2956.5141798288005
1574851159.8627043,4.987594842910767,0.000824399292,2950.1881896768
1574851159.9099867,5.034877300262451,0.000825166702,2952.9741949408003
1574851159.9585788,5.083469390869141,0.000824441202,2950.3403397408006
1574851160.005514,5.130404472351074,0.000823952258,2948.5652774432
1574851160.052388,5.177278518676758,0.000824732706,2951.3986158624
1574851160.1008956,5.225786209106445,0.000816089101,2920.0188722704
1574851160.1478984,5.272789001464844,0.000752220862,2688.1516174048
1574851160.194772,5.319662570953369,0.000649327412,2314.6072365248
1574851160.2416382,5.366528749465942,0.000521859154,1851.8464726815998
1574851160.288387,5.413277626037598,0.000385724939,1357.6248185456
1574851160.3405068,5.465397357940674,0.000249605626,863.4572646304
1574851160.3889852,5.513875722885132,0.000139217824,462.7053882496
1574851160.4298637,5.554754257202148,5.9791841e-05,174.3572995664
1574851160.4767349,5.601625442504883,3.647059e-06,-29.470717006399997
1574851160.5237381,5.6486287117004395,-4.7564507e-05,-215.38918621279998
1574851160.5706089,5.695499420166016,-7.6183118e-05,-319.2861915872
1574851160.6174846,5.742375135421753,-7.4912794e-05,-314.67440733760003
1574851160.679979,5.804869651794434,-7.4638985e-05,-313.680371144
1574851160.7267253,5.851615905761719,-7.4632466e-05,-313.6567045664
1574851160.7737203,5.898610830307007,-7.331837e-05,-308.88601044800004
1574851160.820589,5.94547963142395,-7.4368902e-05,-312.69986182080004
1574851160.8718498,5.996740341186523,-7.3133036e-05,-308.21317389440003
1574851160.9091687,6.034059286117554,-7.3377974e-05,-309.1023968096
1574851160.9561403,6.08103084564209,-6.684009e-05,-285.367262736
1574851161.0030146,6.1279051303863525,3.118999e-06,-31.3877860304
1574851161.0498807,6.174771308898926,6.0202554e-05,175.84835204159998
1574851161.1122956,6.2371861934661865,0.000124309212,408.58116324480005
1574851161.1591501,6.284040689468384,0.000189709477,646.0102853008
1574851161.206123,6.3310136795043945,0.000253674574,878.2291734496
1574851161.2529943,6.377884864807129,0.00031594187,1104.284364848
1574851161.2998662,6.424756765365601,0.000372908078,1311.0944863712
1574851161.3506694,6.475559949874878,0.000429068692,1514.9799794368
1574851161.3947136,6.519604206085205,0.000477041118,1689.1390747872001
1574851161.4416263,6.566516876220703,0.000520431437,1846.6632888848
1574851161.4883718,6.613262414932251,0.000559489243,1988.4587477872
1574851161.535367,6.660257577896118,0.000591324642,2104.0339803168004
1574851161.5822353,6.707125902175903,0.000623702072,2221.5770021888
1574851161.6289828,6.753873348236084,0.000652809627,2327.2490698608
1574851161.6758826,6.8007731437683105,0.000678565353,2420.7526575312004
1574851161.722853,6.847743511199951,0.000702560879,2507.8660151216004
1574851161.7697284,6.894618988037109,0.000720599666,2573.3540274464003
1574851161.830762,6.955652475357056,0.000738921575,2639.8698858800003
1574851161.8752267,7.000117301940918,0.000756189227,2702.5583697008
1574851161.9221005,7.0469911098480225,0.000772087835,2760.2766761840003
1574851161.968971,7.0938615798950195,0.00078731589,2815.560607056
1574851162.015845,7.140735626220703,0.000797821209,2853.6991171536
1574851162.0627182,7.18760871887207,0.000807061791,2887.2461260464
1574851162.1094575,7.2343480587005615,0.000815575942,2918.1558998368
1574851162.1563375,7.281228065490723,0.000824027695,2948.8391439280003
1574851162.203241,7.328131675720215,0.000833181664,2982.0717129856002
1574851162.250112,7.37500262260437,0.000836338848,2993.5335537792002
1574851162.3111346,7.436025142669678,0.000836484134,2994.0610000736
1574851162.3568387,7.48172926902771,0.000835504383,2990.5041120432
1574851162.3933637,7.518254280090332,0.000834643841,2987.3800003664005
1574851162.4559872,7.580877780914307,0.000835400075,2990.12543228
1574851162.5028613,7.62775182723999,0.000833963044,2984.9084349376003
1574851162.5497339,7.674624443054199,0.000834815204,2988.0021166016
1574851162.596607,7.721497535705566,0.000834337436,2986.2676276544003
1574851162.6433525,7.768243074417114,0.000833751634,2984.1409320736
1574851162.6903489,7.815239429473877,0.000834641978,2987.3732369312
1574851162.7372208,7.862111330032349,0.000833308324,2982.5315394496
1574851162.7895072,7.914397716522217,0.000834272243,2986.0309509872
1574851162.8258593,7.95074987411499,0.000816485845,2921.4592116880003
1574851162.8795516,8.00444221496582,0.000737152994,2633.4492294176002
1574851162.936285,8.06117558479309,0.00062509533,2226.6350860320003
1574851162.979994,8.104884624481201,0.000489735976,1735.2264872704002
1574851163.026864,8.15175461769104,0.000346660614,1215.8056930655998
1574851163.0738688,8.198759317398071,0.000212018378,727.0005194912
1574851163.1184108,8.243301391601562,0.000106820837,345.09136664479996
1574851163.1652825,8.290173053741455,3.8144179e-05,95.7676274416
1574851163.2121537,8.33704423904419,-2.1052547e-05,-119.1401666288
1574851163.2722642,8.397154808044434,-6.9228932e-05,-294.0397147328
1574851163.3092256,8.434116125106812,-8.4978528e-05,-351.21704805120004
1574851163.3659546,8.490845203399658,-7.9786405e-05,-332.36756471200005
1574851163.409536,8.53442645072937,-7.8242272e-05,-326.7617442688
1574851163.4564073,8.581297874450684,-7.925462e-05,-330.436972448
1574851163.50341,8.628300666809082,-7.8016892e-05,-325.9435247168
1574851163.5502787,8.675169229507446,-7.81212e-05,-326.32220448
1574851163.5971568,8.722047328948975,-7.8510493e-05,-327.7354937872
1574851163.6439273,8.768817901611328,-7.7249482e-05,-323.15751945280005
1574851163.690894,8.815784454345703,-7.8391284e-05,-327.30271743360004
1574851163.7532663,8.878156900405884,-7.7317469e-05,-323.40433945760003
1574851163.800135,8.925025463104248,-7.7449717e-05,-323.88445259680003
1574851163.8462265,8.97111701965332,-1.4533289e-05,-95.4726523856
1574851163.8945174,9.019407987594604,4.3134205e-05,113.883417832
1574851163.9414408,9.066331386566162,0.00010425318,335.769744672
1574851163.9883127,9.113203287124634,0.000169884413,574.0373729552
1574851164.0351815,9.160072088241577,0.000234927982,810.1715458527999
1574851164.0820572,9.206947803497314,0.000296195969,1032.5988458576
1574851164.128932,9.253822565078735,0.000356271863,1250.6983714352
1574851164.175669,9.300559520721436,0.000411553308,1451.3921293632
1574851164.2315037,9.356394290924072,0.000462934375,1637.925955
1574851164.2756486,9.40053915977478,0.000508104451,1801.9113989104
1574851164.3226519,9.447542428970337,0.000546920113,1942.8277782352
1574851164.3761294,9.501019954681396,0.000582537614,2072.1335538656003
1574851164.4231315,9.548022031784058,0.000612806529,2182.0218228816
1574851164.4698737,9.594764232635498,0.000643906184,2294.9260103936003
1574851164.516875,9.641765594482422,0.000670731999,2392.3144491696
1574851164.5637457,9.688636302947998,0.000694382004,2478.1734273216002
1574851164.6105149,9.735405445098877,0.000715488568,2554.7986972672
1574851164.6574903,9.782380819320679,0.000731891021,2614.3461626384
1574851164.7103622,9.83525276184082,0.000750161707,2680.6760610928004
1574851164.7603474,9.8852379322052,0.000766814686,2741.1330360544002
1574851164.8073432,9.932233810424805,0.000781869516,2795.7880908864004
1574851164.8557084,9.98059892654419,0.000795932487,2846.8423008048003
1574851164.8916008,10.016491413116455,0.000801887363,2868.4608826352
1574851164.9384701,10.063360691070557,0.000811358914,2902.8464013856
1574851164.9853425,10.110233068466187,0.000819414854,2932.0926859616
1574851165.047841,10.172731637954712,0.000827796757,2962.5223466128004
1574851165.0947099,10.219600439071655,0.000835038722,2988.8135763488003
1574851165.1415842,10.266474723815918,0.000835542567,2990.6427352368
1574851165.1898699,10.314760446548462,0.000835806131,2991.5995779824
1574851165.2265143,10.351404905319214,0.000835106708,2989.0603927232
1574851165.2735105,10.398401021957397,0.000834202394,2985.7773711776003
1574851165.3360085,10.460899114608765,0.000835092738,2989.0096760352003
1574851165.377584,10.502474546432495,0.000833679922,2983.8805888288002
1574851165.4244573,10.549347877502441,0.000834448263,2986.6699739952005
1574851165.4714267,10.596317291259766,0.000828617252,2965.5010716608003
1574851165.5182993,10.643189907073975,0.000764319673,2732.0751408592
1574851165.5651755,10.69006609916687,0.000657914206,2345.7807334624003
1574851165.612046,10.736936569213867,0.000524410978,1861.1106145311999
1574851165.6713717,10.796262264251709,0.000380829908,1339.8538980032001
1574851165.709169,10.834059476852417,0.000240025111,828.6761629744
1574851165.7561722,10.881062746047974,0.000126727857,417.36181205279996
1574851165.8030434,10.927933931350708,4.9534254e-05,137.11815572159998
1574851165.8629746,10.987865209579468,-1.1478551e-05,-84.3827315504
1574851165.9013367,11.026227235794067,-6.5336935e-05,-279.910208824
1574851165.9482083,11.07309889793396,-9.0088695e-05,-369.768998328
1574851165.995081,11.119971513748169,-8.9276582e-05,-366.8207032928
1574851166.041853,11.166743516921997,-8.753594e-05,-360.501476576
1574851166.1021407,11.227031230926514,-8.8384375e-05,-363.581635
1574851166.1497266,11.274617195129395,-8.7203458e-05,-359.2944339232
1574851166.1940722,11.318962812423706,-8.7192282e-05,-359.2538605728
1574851166.241071,11.36596155166626,-8.7630935e-05,-360.84634642400005
1574851166.2879415,11.412832021713257,-8.6284243e-05,-355.9573157872
1574851166.343508,11.468398571014404,-8.7411143e-05,-360.0484135472
1574851166.3917322,11.51662278175354,-8.6385757e-05,-356.32585221280004
1574851166.4386027,11.563493251800537,-7.6090917e-05,-318.9514650768
1574851166.4854758,11.610366344451904,-3.41516e-06,-55.109396864
1574851166.5323453,11.657235860824585,5.6891702e-05,163.8286349408
1574851166.579218,11.704108476638794,0.000118600205,387.855184232
1574851166.6304152,11.755305767059326,0.000185515732,630.7853134528
1574851166.675253,11.800143480300903,0.000249489211,863.0346316144
1574851166.7222188,11.847109317779541,0.000308953226,1078.9127916704
1574851166.7690868,11.893977403640747,0.000367531553,1291.5755500112
1574851166.8159614,11.940851926803589,0.000421412289,1487.1841739856
1574851166.8616495,11.986540079116821,0.000471540727,1669.1704553008
1574851166.9085717,12.033462285995483,0.000515424646,1828.4866348384
1574851166.955522,12.08041262626648,0.000552916899,1964.5985101295998
1574851167.0023906,12.127281188964844,0.000587402843,2089.7962812272003
1574851167.0492659,12.174156427383423,0.000617576763,2199.3396803952
1574851167.1116316,12.236522197723389,0.000648590736,2311.9328079744
1574851167.17067,12.295560598373413,0.000675347634,2409.0710504736003
1574851167.2066967,12.331587314605713,0.000698376447,2492.6748531888
1574851167.242437,12.367327451705933,0.00071937032,2568.8910097280004
1574851167.2894433,12.414333820343018,0.000735619105,2627.880598792
1574851167.3497472,12.474637746810913,0.000754181296,2695.2687769984004
1574851167.393466,12.518356561660767,0.000770308077,2753.8154427408
1574851167.4403415,12.565232038497925,0.000784672797,2805.9651222288003
1574851167.487307,12.612197637557983,0.000797895715,2853.9696037360004
1574851167.5341802,12.65907073020935,0.000803303905,2873.603496712
1574851167.5895512,12.714441776275635,0.000811675563,2903.9959639152003
1574851167.6266036,12.75149416923523,0.000817977823,2926.8756886192
1574851167.6736064,12.798496961593628,0.00082482677,2951.7401058080004
1574851167.7361002,12.860990762710571,0.000831997953,2977.7743685712003
1574851167.7841897,12.909080266952515,0.000831717625,2976.7566658000005
1574851167.82276,12.947650671005249,0.000831914134,2977.4700720736005
1574851167.8758206,13.00071120262146,0.000831297599,2975.2318034096
1574851167.9228263,13.047716856002808,0.000830415636,2972.0299249344002
1574851167.9696958,13.094586372375488,0.000831292942,2975.2148966368004
1574851168.0164592,13.141349792480469,0.000829885714,2970.1060961056
1574851168.0719283,13.196818828582764,0.000830686651,2973.0138177904
1574851168.1088195,13.233710050582886,0.000830337405,2971.745915112
1574851168.155819,13.280709505081177,0.000829583965,2969.010626536
1574851168.2026882,13.327578783035278,0.000830633566,2972.8210980064005
1574851168.2495642,13.374454736709595,0.000829283148,2967.9185404992004
1574851168.3120604,13.436950922012329,0.000830199569,2971.2455152976004
1574851168.3567045,13.481595039367676,0.000827312469,2960.7641874576
1574851168.4084785,13.533369064331055,0.0007711621,2756.91588784
1574851168.4554818,13.580372333526611,0.000669559464,2388.0576781056
1574851168.5023525,13.627243041992188,0.000539465807,1915.7656657327998
1574851168.5504508,13.675341367721558,0.000398822129,1405.1728571216
1574851168.599654,13.724544525146484,0.000257717445,892.9064123279999
1574851168.6441805,13.769071102142334,0.000140867196,468.6932683584
1574851168.6911807,13.816071271896362,5.909428e-05,171.82487411199997
1574851168.738056,13.862946510314941,-1.043081e-06,-46.497801262399996
1574851168.784929,13.909819602966309,-5.5878423e-05,-245.57202685919998
1574851168.838758,13.963648557662964,-8.6476095e-05,-356.65381528800003
1574851168.8753784,14.000268936157227,-8.4925443e-05,-351.0243282672
1574851168.9223812,14.047271728515625,-8.3144754e-05,-344.5597149216
