Time, Time Since Begin, V/V Raw Data, Force 
1574851788.2444954,0.2438054084777832,-0.000118208118,-471.85375158720007
1574851788.2913651,0.29067516326904297,-0.000118142925,-471.61707492
1574851788.3381147,0.33742475509643555,-0.000118082389,-471.3973050256
1574851788.3836644,0.38297438621520996,-0.000118099153,-471.4581650512
1574851788.4150255,0.4143354892730713,-0.000118194148,-471.80303489920004
1574851788.4618888,0.4611988067626953,-0.000118260272,-472.0430914688
1574851788.493131,0.49244093894958496,-0.000118296593,-472.1749512272
1574851788.5533464,0.5526564121246338,-0.00011832267,-472.269621168
1574851788.5937274,0.5930373668670654,-0.00011828728,-472.141141312
1574851788.624972,0.6242821216583252,-0.00011818856,-471.782748224
1574851788.6703453,0.6696553230285645,-0.000118169002,-471.7117448608
1574851788.7150369,0.7143468856811523,-0.000118113123,-471.5088817392
1574851788.7619061,0.7612161636352539,-0.000118049793,-471.2789685072
1574851788.7930298,0.7923398017883301,-0.000118082389,-471.3973050256
1574851788.840074,0.8393840789794922,-0.000118147582,-471.6339816928
1574851788.8842635,0.8835735321044922,-0.000118225813,-471.9179915152
1574851788.9154952,0.9148051738739014,-0.00011832919,-472.293291376
1574851788.9623685,0.9616785049438477,-5.2743591e-05,-234.19133276640002
1574851789.009362,1.0086719989776611,2.3917295e-05,44.11834776799999
1574851789.0562332,1.0555431842803955,0.000107422471,347.2755387184
1574851789.0968785,1.0961885452270508,0.000197237357,673.3395008527999
1574851789.128816,1.1281259059906006,0.000289768912,1009.2660581248001
1574851789.1758206,1.1751306056976318,0.000381587073,1342.6027098192
1574851789.2226872,1.2219972610473633,0.00047031045,1664.70405768
1574851789.2539358,1.2532458305358887,0.000550794415,1956.8930442160001
1574851789.3058405,1.3051505088806152,0.000625032,2226.4051728
1574851789.3441634,1.3434734344482422,0.00069236476,2470.850024704
1574851789.3842626,1.3835725784301758,0.000752856024,2690.4575095296004
1574851789.4312372,1.4305472373962402,0.000803570263,2874.5704827952004
1574851789.4624884,1.4617984294891357,0.000850905664,3046.4169225856
1574851789.5113559,1.5106658935546875,0.000893870369,3202.3959876176
1574851789.5516233,1.5509333610534668,0.000933970325,3347.97486788
1574851789.5984592,1.5977692604064941,0.000971530564,3484.3335595456
1574851789.629655,1.628964900970459,0.001006001607,3609.4772340528
1574851789.6766572,1.6759672164916992,0.001037207432,3722.7668611328004
1574851789.723529,1.722839117050171,0.001066216268,3828.0805393472006
1574851789.7703056,1.769615650177002,0.00109648332,3937.962044928
1574851789.8171525,1.816462516784668,0.001122983173,4034.1671112592007
1574851789.8655152,1.8648252487182617,0.001139609143,4094.5260327472
1574851789.9018977,1.901207685470581,0.001140458509,4097.6095710736
1574851789.9599116,1.959221601486206,0.001137856394,4088.1628527775997
1574851789.9999208,1.9992308616638184,0.001078817062,3873.8264618847998
1574851790.046784,2.0460939407348633,0.000939071178,3366.4930046112004
1574851790.1032507,2.1025607585906982,0.000753685832,2693.4700444928
1574851790.1541574,2.1534674167633057,0.000543007627,1928.6238890608
1574851790.2011578,2.200467824935913,0.000331963412,1162.4489709248
1574851790.2480326,2.247342586517334,0.000148551539,496.5905071856
1574851790.2949035,2.2942135334014893,2.7135946e-05,55.80333835840001
1574851790.3428473,2.3421573638916016,-7.7732839e-05,-324.9122987056
1574851790.3829093,2.3822193145751953,-0.000173111446,-671.1747935584
1574851790.440063,2.439373016357422,-0.000212418847,-813.8763821488001
1574851790.4843035,2.4836134910583496,-0.000204275362,-784.3122742048
1574851790.5312786,2.5305886268615723,-0.000185549259,-716.3290298736
1574851790.578141,2.57745099067688,-0.000163055025,-634.6659627600001
1574851790.625021,2.624330997467041,-0.000141979195,-558.152269528
1574851790.6718924,2.6712024211883545,-0.000126231462,-500.9816996448
1574851790.7187638,2.718073844909668,-0.00011749845,-469.27737288
1574851790.7655382,2.764848232269287,-0.000112999231,-452.9434082224
1574851790.8125079,2.8118178844451904,-0.000113230199,-453.78191444960004
1574851790.8673065,2.8666164875030518,-0.000112961046,-452.8047813984
1574851790.920639,2.9199490547180176,-0.000113078393,-453.2307979472
1574851790.968592,2.9679019451141357,-0.000113116577,-453.3694211408
1574851791.0153623,3.01467227935791,-0.000112925656,-452.67630154240004
1574851791.0623353,3.061645269393921,-0.000113148242,-453.48437775680003
1574851791.1092057,3.108515739440918,-0.000112888403,-452.5410582512
1574851791.1560783,3.155388355255127,-0.00011297036,-452.838594944
1574851791.202954,3.2022640705108643,-0.000113007613,-452.9738382352
1574851791.249697,3.249006986618042,-0.000112806447,-452.24352518880005
1574851791.2966933,3.2960033416748047,-0.000113037415,-453.082031416
1574851791.3527021,3.3520121574401855,-0.000112750567,-452.0406584368
1574851791.400559,3.399868965148926,-0.000112853013,-452.4125783952
1574851791.4481673,3.447477340698242,-0.000112918206,-452.6492550624
1574851791.495038,3.4943480491638184,-0.000112718903,-451.92570545120003
1574851791.5419092,3.5412192344665527,-0.000112937763,-452.7202547952
1574851791.5887775,3.588087558746338,-0.000112720765,-451.932465256
1574851791.635653,3.634963035583496,-0.000112768263,-452.1049019952
1574851791.682419,3.6817290782928467,-0.000112831593,-452.3348152272
1574851791.729397,3.7287070751190186,-0.000112626702,-451.5909789408
1574851791.77627,3.7755799293518066,-0.000112869777,-452.47343842080005
1574851791.823138,3.8224480152130127,-0.000112654641,-451.6924086864
1574851791.881702,3.881011962890625,-0.000112743117,-452.0136119568
1574851791.915404,3.9147140979766846,-0.000112772919,-452.1218051376
1574851791.9779973,3.9773073196411133,-0.00011257641,-451.40839886400005
1574851792.0248687,4.024178743362427,-0.000112807378,-452.2469050912
1574851792.0717437,4.071053743362427,-0.000112597831,-451.4861656624
1574851792.1186152,4.11792516708374,-0.000112660229,-451.7126953616
1574851792.1653862,4.164696216583252,-0.000112726353,-451.9527519312
1574851792.2123585,4.211668491363525,-0.000112532638,-451.2494889952
1574851792.2592306,4.258540630340576,-0.000112778507,-452.1420918128
1574851792.3059716,4.305281639099121,-0.000112527981,-451.2325822224
1574851792.3585336,4.357843637466431,-0.000112598762,-451.4895455648
1574851792.4008222,4.400132179260254,-0.000112636946,-451.6281687584
1574851792.4476924,4.447002410888672,-0.000112487003,-451.0838156912
1574851792.4945602,4.493870258331299,-0.000112700276,-451.8580819904
1574851792.5414348,4.540744781494141,-0.000112484209,-451.0736723536
1574851792.6003258,4.59963583946228,-0.000112565234,-451.36782551360005
1574851792.6360757,4.635385751724243,-0.000112636015,-451.624788856
1574851792.6828504,4.682160377502441,-0.000112427399,-450.86742932960004
1574851792.7454782,4.74478816986084,-0.00011265371,-451.689028784
1574851792.7923474,4.791657447814941,-9.116251e-05,-373.667376304
1574851792.8398738,4.839183807373047,6.04894e-06,-20.750928224
1574851792.8842583,4.883568286895752,9.5194206e-05,302.8820454624
1574851792.931259,4.9305689334869385,0.000186154619,633.1047288176
1574851792.978125,4.977435111999512,0.000236571766,816.1391392864
1574851793.0248718,5.024181842803955,0.000238554552,823.3374455808
1574851793.071796,5.07110595703125,0.000228507444,786.8624246976
1574851793.1257093,5.125019311904907,0.000213993713,734.1717756751999
1574851793.1725824,5.171892404556274,0.000198926777,679.4727712207999
1574851793.219456,5.2187659740448,0.00018445123,626.920745392
1574851793.266205,5.265515089035034,0.000171211548,578.8554038592
1574851793.3198738,5.319183826446533,0.000159871764,537.6874520256
1574851793.3665397,5.365849733352661,0.000152255408,510.03703320320005
1574851793.4146903,5.4140002727508545,0.000147215091,491.7386663664
1574851793.4615624,5.460872411727905,0.000146050937,487.5123216848
1574851793.5084329,5.507742881774902,0.000238393433,822.7525191632
1574851793.5553064,5.554616451263428,0.000341511331,1197.1117360624
1574851793.6021206,5.601430654525757,0.000440805219,1557.5882670576
1574851793.6489496,5.64825963973999,0.000463170931,1638.7847479024
1574851793.6959217,5.695231676101685,0.000423886813,1496.1676859152
1574851793.7427948,5.742104768753052,0.000366833992,1289.0431245568
1574851793.8007102,5.800020217895508,0.000301500782,1051.8574389727999
1574851793.8489957,5.848305702209473,0.000233823434,806.1615947936
1574851793.883347,5.882657051086426,0.000170341693,575.6974822672
1574851793.9459727,5.945282697677612,0.000113277696,368.5323475584
1574851793.9928436,5.992153644561768,7.0217066e-05,212.20503640639998
1574851794.0397167,6.039026737213135,4.4751912e-05,119.7563413248
1574851794.086589,6.085899114608765,2.7357601e-05,56.6080346704
1574851794.133336,6.132646083831787,2.378691e-05,43.644998064000006
1574851794.1803265,6.179636478424072,2.4055131e-05,44.618747582400005
1574851794.227202,6.2265119552612305,2.4400651e-05,45.87312339040001
1574851794.2798066,6.279116630554199,2.4438836e-05,46.011750214399996
1574851794.3178189,6.317128896713257,2.450496e-05,46.25180678400001
1574851794.3751926,6.374502658843994,2.4666078e-05,46.83672957120001
1574851794.415154,6.414463996887207,2.454035e-05,46.380286639999994
1574851794.4621415,6.461451530456543,2.475176e-05,47.147789504
1574851794.5090158,6.508325815200806,2.4740584e-05,47.10721615360001
1574851794.5558882,6.5551981925964355,2.6443973e-05,53.2911995792
1574851794.6182518,6.6175618171691895,0.000116472133,380.1294316432
1574851794.6651297,6.664439678192139,0.000222922303,766.5861288112
1574851794.7121274,6.711437463760376,0.000329919159,1155.0275148336
1574851794.7616315,6.760941505432129,0.00040492788,1427.339175552
1574851794.8096125,6.808922529220581,0.000395594165,1393.4540566160001
1574851794.8562698,6.855579853057861,0.00035926234,1261.5549991359999
1574851794.8999727,6.899282693862915,0.00031306874,1093.8537536959998
1574851794.9469764,6.94628643989563,0.000263364986,913.4092451744
1574851794.9938483,6.993158340454102,0.000212525018,728.8398253472001
1574851795.0407228,7.040032863616943,0.000164221041,553.4770672464
1574851795.0875874,7.086897373199463,0.000121578574,398.6678550496
1574851795.13446,7.133769989013672,8.6318702e-05,270.6604157408
1574851795.1813366,7.180646657943726,6.5057538e-05,193.4738859552
1574851795.2392545,7.238564491271973,5.5659562e-05,159.3554738848
1574851795.2832875,7.282597541809082,5.0248578e-05,139.7114375712
1574851795.330185,7.329494953155518,5.132053e-05,143.603052112
1574851795.3831804,7.382490396499634,5.115103e-05,142.98769931200002
1574851795.4301543,7.429464340209961,5.1678158e-05,144.90138480320002
1574851795.4770238,7.476333856582642,5.1610172e-05,144.65456842880002
1574851795.5238948,7.523204803466797,5.099643e-05,142.42643947200003
1574851795.570768,7.570078134536743,5.2275136e-05,147.06865373440002
1574851795.617536,7.616846084594727,5.0886534e-05,142.02747303360002
1574851795.6645107,7.663820743560791,5.1856041e-05,145.5471712464
1574851795.7217896,7.721099615097046,5.1822513e-05,145.42545119520003
1574851795.765881,7.765191078186035,5.1357783e-05,143.73829540319997
1574851795.812881,7.812191009521484,5.2460469e-05,147.74148665759998
1574851795.8657901,7.865100145339966,5.1621348e-05,144.69514177920001
1574851795.9127898,7.912099838256836,5.2082352e-05,146.36877070080004
1574851795.9596624,7.958972454071045,5.1910058e-05,145.74327456320003
1574851796.0065343,8.005844354629517,5.1206909e-05,143.1905624336
1574851796.053408,8.052717924118042,5.249586e-05,147.86997014399998
1574851796.1052012,8.104511260986328,5.1134266e-05,142.92683928640002
1574851796.1409316,8.140241622924805,5.196128e-05,145.92923091199998
1574851796.201484,8.200793981552124,5.2010641e-05,146.1084310864
1574851796.249813,8.249123096466064,5.1262788e-05,143.3934255552
1574851796.2967992,8.296109199523926,5.2588992e-05,148.2080765568
1574851796.344705,8.344015121459961,5.1201321e-05,143.1702757584
1574851796.3851326,8.384442567825317,5.1963143e-05,145.9359943472
1574851796.4318795,8.43118953704834,5.1856972e-05,145.55055114879997
1574851796.4788747,8.478184700012207,5.1870011e-05,145.59788793439998
1574851796.525745,8.525054931640625,5.1976182e-05,145.9833311328
1574851796.5726175,8.571927547454834,5.1863492e-05,145.57422135680002
1574851796.6194909,8.61880087852478,5.1990151e-05,146.03404419039998
1574851796.6796324,8.678942441940308,7.6341443e-05,234.4389746672
1574851796.7161543,8.715464353561401,0.000176197849,596.9576710096
1574851796.7631524,8.762462377548218,0.000286011957,995.6268086928001
1574851796.8256505,8.824960470199585,0.000392414629,1381.9110691216
1574851796.8719819,8.871291875839233,0.000495106913,1754.7251369551998
1574851796.9068484,8.906158447265625,0.000583594665,2075.9710718160004
1574851796.9693432,8.968653202056885,0.000663799234,2367.1457391136
1574851797.0161145,9.015424489974976,0.000735397451,2627.0759061104
1574851797.0630841,9.062394142150879,0.000794761814,2842.5922895456
1574851797.1098297,9.109139680862427,0.000847754069,3034.9753720976
1574851797.1586382,9.15794825553894,0.000895908102,3209.7937735008
1574851797.1993916,9.198701620101929,0.000939955935,3369.705026424
1574851797.246366,9.245676040649414,0.000969406217,3476.6213301968005
1574851797.2932396,9.29254961013794,0.000904136337,3239.6655578448003
1574851797.3540888,9.35339879989624,0.000782461837,2797.9384530448006
1574851797.398817,9.39812707901001,0.000626981258,2233.4817590432003
1574851797.445789,9.445099115371704,0.000453836285,1604.896249064
1574851797.4926636,9.491973638534546,0.00028054323,975.773142192
1574851797.5395322,9.53884220123291,0.000131564215,434.919726136
1574851797.5862942,9.585604190826416,2.9012561e-05,62.6162014544
1574851797.6394746,9.638784646987915,-5.2045099e-05,-231.65552740959998
1574851797.683763,9.683073043823242,-0.000122639351,-487.9408998704
1574851797.7307405,9.730050563812256,-0.000146098435,-573.106758424
1574851797.7776105,9.776920557022095,-0.000142947771,-561.6685878384
1574851797.82448,9.823790073394775,-0.000142069533,-558.4802326032
1574851797.866876,9.866185903549194,-0.000141653232,-556.9688934528
1574851797.9295013,9.928811311721802,-0.000141345896,-555.8531408384
1574851797.9763694,9.975679397583008,-0.00014086999,-554.125411696
1574851798.0387373,10.038047313690186,-0.000140839256,-554.0138349824
1574851798.069983,10.069293022155762,-0.00014053937,-552.925128848
1574851798.1192625,10.118572473526001,-0.000140422955,-552.502495832
1574851798.1672816,10.16659164428711,-0.00014036987,-552.309776048
1574851798.2141535,10.213463544845581,-0.000140064396,-551.2007832384
1574851798.2610254,10.260335445404053,-0.000140129589,-551.4374599055999
1574851798.3112113,10.310521364212036,-0.000139867887,-550.4873769648
1574851798.3603282,10.359638214111328,-0.000139802694,-550.2507002976
1574851798.400031,10.399341106414795,-0.000139771961,-550.1391272144
1574851798.4469867,10.446296691894531,-0.000139582902,-549.4527674208
1574851798.493856,10.493165969848633,-0.000139620155,-549.588010712
1574851798.540733,10.540043115615845,-0.000119805336,-477.6522918144
1574851798.6009178,10.60022783279419,-6.697141e-06,-67.0243006864
1574851798.649732,10.649042129516602,7.935334e-05,245.37336553599994
1574851798.6967337,10.696043729782104,0.000180945732,614.1943854528
1574851798.743606,10.742916107177734,0.000285862014,995.0824556256
1574851798.790478,10.789788007736206,0.0003896337,1371.81518448
1574851798.842169,10.841479063034058,0.00048904866,1732.731255264
1574851798.8824193,10.881729364395142,0.000579264015,2060.249080056
1574851798.929415,10.928725004196167,0.000661406666,2358.4597602464
1574851798.976283,10.975593090057373,0.000735024922,2625.7234768288004
1574851799.0231595,11.022469520568848,0.000796147622,2847.6233269088
1574851799.079524,11.078834056854248,0.000850580633,3045.2369300432006
1574851799.1170058,11.116315841674805,0.000900194049,3225.3534754896004
1574851799.1640067,11.16331672668457,0.000945711508,3390.6000586432006
1574851799.2108767,11.21018671989441,0.0009895619,3549.7945217600004
1574851799.2733731,11.272683143615723,0.00102650933,3683.9284716320003
1574851799.3202443,11.319554328918457,0.001059470698,3803.5914220192008
1574851799.3655906,11.364900588989258,0.001089734957,3913.4627878928004
1574851799.4125915,11.411901473999023,0.001117023639,4012.5316190256003
1574851799.4594634,11.458773374557495,0.001136102714,4081.7962929056
1574851799.5062046,11.50551462173462,0.001142825931,4106.2042599024
1574851799.5590959,11.558405876159668,0.001140002161,4095.9528452944
1574851799.5993013,11.59861135482788,0.001138383523,4090.0765418992
1574851799.6463048,11.645614862442017,0.001137468033,4086.752947003201
1574851799.693178,11.692487955093384,0.001136547886,4083.4124453344007
1574851799.740048,11.739357948303223,0.001136043109,4081.5799029136
1574851799.786921,11.78623104095459,0.001133230515,4071.369061656
1574851799.8492963,11.84860634803772,0.001055079512,3787.6496603647997
1574851799.8836796,11.882989645004272,0.00090658851,3248.567926704
1574851799.9461749,11.94548487663269,0.000716753304,2559.3901948416
1574851799.9931757,11.992485761642456,0.000506090932,1794.6015195328
1574851800.041087,12.040396928787231,0.000299880281,1045.9743721424
1574851800.0816891,12.08099913597107,0.000126528554,416.6382624416
1574851800.1286857,12.127995729446411,1.3977289e-05,8.032149985600007
1574851800.1755588,12.174868822097778,-9.0094283e-05,-369.7892850032
1574851800.2224293,12.221739292144775,-0.000178371556,-690.2710969024
1574851800.2693021,12.268612146377563,-0.000206490979,-792.3558501616001
1574851800.3160415,12.315351486206055,-0.000189264305,-729.816132872
1574851800.3765953,12.375905275344849,-0.000166525133,-647.2638428432
1574851800.4163837,12.415693759918213,-0.000147089362,-576.7042198048
1574851800.4633791,12.46268916130066,-0.00013174396,-520.9942723839999
1574851800.5202472,12.519557237625122,-0.00012063235,-480.65468344000004
1574851800.5648165,12.56412649154663,-0.000116211362,-464.6047286048
1574851800.611799,12.611109018325806,-4.5302324e-05,-207.17655704959998
1574851800.6586697,12.657979726791382,3.8245693e-05,96.13616386720001
1574851800.7055416,12.704851627349854,0.000138359144,459.5880363776
1574851800.7524142,12.751724243164062,0.000243335962,840.6958764448
1574851800.7991557,12.798465728759766,0.000347382389,1218.4260250256
1574851800.8551197,12.854429721832275,0.0004476998,1582.6183539200001
1574851800.8990536,12.898363590240479,0.000542084686,1925.2732440544003
1574851800.9460514,12.945361375808716,0.000627615489,2235.7842712656
1574851801.001901,13.001210927963257,0.000704304315,2514.1953851760004
1574851801.050071,13.049381017684937,0.000770587474,2754.8297656096006
1574851801.0970519,13.096361875534058,0.000827741809,2962.3228633936
1574851801.1439245,13.143234491348267,0.000879071653,3148.6707290512004
1574851801.1907918,13.190101861953735,0.00092510134,3315.7769047360002
1574851801.2376683,13.23697829246521,0.000968612731,3473.7406586224
1574851801.284495,13.283805131912231,0.001008136198,3617.2266532192
1574851801.3314128,13.33072280883789,0.001044414937,3748.9329872848
1574851801.3847172,13.384027242660522,0.001076870598,3866.7600189792
1574851801.4315975,13.430907487869263,0.001106773503,3975.3195252912005
1574851801.4814043,13.480714321136475,0.001130295917,4060.7152970767997
1574851801.518013,13.517323017120361,0.001142483205,4104.960027432
1574851801.5648065,13.564116477966309,0.001140858978,4099.063433731199
1574851801.6117506,13.611060619354248,0.001139069907,4092.5683903728
1574851801.6714747,13.670784711837769,0.001138187945,4089.366515528
1574851801.7068267,13.706136703491211,0.001137432642,4086.624463516801
1574851801.769323,13.768633127212524,0.001136730425,4084.0751349199995
1574851801.8161044,13.815414428710938,0.001136362553,4082.7396124112006
1574851801.8644922,13.863802194595337,0.001135776751,4080.6129168304
