Time, Time Since Begin, V/V Raw Data, Force 
1574854855.393151,0.26901698112487793,-8.6048618e-05,-355.1019027872
1574854855.440023,0.3158888816833496,-8.6010434e-05,-354.9632795936
1574854855.4712663,0.34713220596313477,-8.5980631e-05,-354.8550827824
1574854855.522404,0.3982698917388916,-8.6089596e-05,-355.2506693184
1574854855.5667853,0.44265127182006836,-8.6146407e-05,-355.4569159728
1574854855.5981627,0.4740285873413086,-8.623302e-05,-355.771355808
1574854855.6450362,0.520902156829834,-8.628238e-05,-355.950552352
1574854855.676281,0.5521469116210938,-8.6255372e-05,-355.8525025088
1574854855.7360678,0.611933708190918,-8.6188316e-05,-355.6090624064
1574854855.7683132,0.644179105758667,-8.6089596e-05,-355.2506693184
1574854855.8160017,0.6918675899505615,-8.6012296e-05,-354.9700393984
1574854855.8560498,0.7319157123565674,-8.5938722e-05,-354.70293634880005
1574854855.9000738,0.7759397029876709,-8.5994601e-05,-354.90579947040004
1574854855.9470565,0.8229224681854248,-8.6105429e-05,-355.3081494416
1574854855.9808946,0.8567605018615723,-8.6148269e-05,-355.46367577760003
1574854856.0122645,0.8881304264068604,-8.6218119e-05,-355.71725921760003
1574854856.074771,0.9506368637084961,-8.6258166e-05,-355.8626458464
1574854856.1060195,0.9818854331970215,-8.6216256e-05,-355.7104957824
1574854856.1528926,1.0287585258483887,-8.6133368e-05,-355.40957918720005
1574854856.1840131,1.0598790645599365,-8.6082146e-05,-355.22362283840005
1574854856.2427552,1.1186211109161377,-8.6039305e-05,-355.068092872
1574854856.2831562,1.1590220928192139,-8.5986219e-05,-354.8753694576
1574854856.3145,1.1903660297393799,-8.6006708e-05,-354.94975272320005
1574854856.3613725,1.2372384071350098,-8.6057931e-05,-355.1357127024
1574854856.4082465,1.2841124534606934,-8.6146407e-05,-355.4569159728
1574854856.4394956,1.315361499786377,-8.6249784e-05,-355.8322158336
1574854856.486368,1.3622338771820068,-8.623302e-05,-355.771355808
1574854856.5175128,1.393378734588623,-8.6225569e-05,-355.7443056976
1574854856.564486,1.440351963043213,-8.6126849e-05,-355.38591260960004
1574854856.6112964,1.4871623516082764,-3.2662414e-05,-161.2886277856
1574854856.6560462,1.531912088394165,2.4509616e-05,46.26870992640001
1574854856.6961675,1.572033405303955,8.1235543e-05,252.2065153072
1574854856.7449815,1.620847463607788,0.000142402947,474.26865878880005
1574854856.7847867,1.6606526374816895,0.000210443512,721.2831259648
1574854856.8161168,1.6919827461242676,0.000278886408,969.7582156031999
1574854856.8629856,1.738851547241211,0.000346145593,1213.9359608272
1574854856.9098618,1.7857277393341064,0.0004107235,1448.3795944
1574854856.9507072,1.826573133468628,0.000475700945,1684.273710728
1574854856.9977088,1.8735747337341309,0.000535317697,1900.7063671888002
1574854857.0445814,1.9204473495483398,0.000589349307,2096.8627241328004
1574854857.1033633,1.979229211807251,0.00063584093,2265.6459122720003
1574854857.1511214,2.026987314224243,0.000679629855,2424.617225592
1574854857.1981199,2.0739858150482178,0.000718590803,2566.0610512112003
1574854857.2507164,2.126582384109497,0.00075362809,2693.260417936
1574854857.2977164,2.1735823154449463,0.000786608085,2812.9909917840005
1574854857.3445847,2.2204506397247314,0.000816845335,2922.764304184
1574854857.391459,2.267324924468994,0.000845073722,3025.2446403488
1574854857.4383278,2.3141937255859375,0.00087061245,3117.9604384800004
1574854857.4851952,2.3610610961914062,0.000891843811,3195.0387714544004
1574854857.5320714,2.4079372882843018,0.000910657458,3263.3398355232002
1574854857.5870056,2.462871551513672,0.000927382149,3324.0571537296
1574854857.6348264,2.5106923580169678,0.000942540355,3379.087504792
1574854857.6818173,2.557683229446411,0.000955537893,3426.2737667472
1574854857.7301018,2.6059677600860596,0.000965029001,3460.7302852304
1574854857.766398,2.642263889312744,0.000973798335,3492.566475384
1574854857.8220236,2.697889566421509,0.000978207216,3508.5724769664002
1574854857.8687973,2.7446632385253906,0.000976767391,3503.3453362864007
1574854857.9157672,2.791633129119873,0.000976121053,3500.9988708112005
1574854857.962639,2.8385050296783447,0.000975367613,3498.2635822352004
1574854858.0095072,2.885373115539551,0.000975064933,3497.1647327632004
1574854858.0660064,2.9418723583221436,0.000974706374,3495.8630201696
1574854858.103302,2.979167938232422,0.000974332914,3494.5072109856
1574854858.150065,3.025930881500244,0.00097426679,3494.2671544160003
1574854858.1970372,3.0729031562805176,0.000973876566,3492.8504852064
1574854858.2500455,3.1259114742279053,0.000973858871,3492.7862452784
1574854858.297018,3.172883987426758,0.000973625109,3491.9375957136003
1574854858.3438902,3.2197561264038086,0.000973396003,3491.1058492912002
1574854858.3907611,3.266627073287964,0.000954248011,3421.5909791344
1574854858.4376345,3.31350040435791,0.000861831941,3086.0836786064
1574854858.499999,3.3758649826049805,0.000725992024,2592.9304439296
1574854858.546869,3.4227349758148193,0.000561295077,1995.0146475407998
1574854858.5926394,3.468505382537842,0.000388500281,1367.7004201424002
1574854858.6324067,3.508272647857666,0.000224214047,771.2756762288
1574854858.6792758,3.5551416873931885,9.1751106e-05,290.3822152224
1574854858.7361805,3.612046480178833,1.3570301e-05,6.554620750400005
1574854858.7830532,3.658919095993042,-5.9896149e-05,-260.1579793296
1574854858.8300533,3.7059192657470703,-0.000116920099,-467.1777274096
1574854858.876925,3.752790927886963,-0.000127249397,-504.6772108688
1574854858.9237964,3.7996623516082764,-0.000126198865,-500.86335949600004
1574854858.9706688,3.8465347290039062,-0.000125415623,-498.01987773920007
1574854859.0271554,3.9030213356018066,-0.000125039369,-496.65392521760003
1574854859.0674453,3.9433112144470215,-0.000124786049,-495.73427228959997
1574854859.1144493,3.9903151988983154,-0.000124349259,-494.14854987359996
1574854859.1613207,4.037186622619629,-0.000124415383,-494.3886064432
1574854859.2161334,4.091999292373657,-0.000124064274,-493.1139403296
1574854859.2522926,4.1281585693359375,-0.000123954378,-492.7149738912
1574854859.3147857,4.1906516551971436,-0.000123924576,-492.6067807104
1574854859.361658,4.237524032592773,-0.000123540871,-491.21377807839997
1574854859.4085295,4.284395456314087,-0.000123731792,-491.90689767680004
1574854859.4553995,4.331265449523926,-0.00012344867,-490.87905156799997
1574854859.504193,4.380059003829956,-0.000123392791,-490.67618844640003
1574854859.5524182,4.428284168243408,-0.000111085363,-445.9953018352
1574854859.5994217,4.475287675857544,-1.7712824e-05,-107.01563624959999
1574854859.6462922,4.522158145904541,4.2731874e-05,112.4227953696
1574854859.6931639,4.569029808044434,0.000110622495,358.892905848
1574854859.735458,4.611323833465576,0.000185647048,631.2620430592
1574854859.78246,4.658325910568237,0.000263955444,915.5528438975999
1574854859.829329,4.70519495010376,0.000342365354,1200.2121811616
1574854859.8762,4.752065896987915,0.000413332134,1457.8499792736
1574854859.938701,4.8145668506622314,0.000478717498,1695.2250047392
1574854859.987127,4.862993001937866,0.000538929366,1913.8181703264
1574854860.0339983,4.909864187240601,0.000593200326,2110.8434635104004
1574854860.0809908,4.956856727600098,0.000640755519,2283.4878361776
1574854860.1278722,5.003738164901733,0.00068457704,2442.577486016
1574854860.1747441,5.050610065460205,0.000724435784,2587.2806702336
1574854860.2265513,5.102417230606079,0.000759372488,2714.1148804352
1574854860.2669961,5.14286208152771,0.000791448168,2830.5624291072004
1574854860.3139975,5.189863443374634,0.000820458867,2935.8828707568005
1574854860.36087,5.236735820770264,0.000846029259,3028.7136218736005
1574854860.4077437,5.283609628677368,0.00086976774,3114.893803296
1574854860.4638884,5.339754343032837,0.000891210511,3192.7396391344005
1574854860.500422,5.376287937164307,0.000910593197,3263.1065423888003
1574854860.5629241,5.4387900829315186,0.000928661786,3328.7027478944
1574854860.6099198,5.485785722732544,0.000945602544,3390.2044757376
1574854860.6567922,5.532658100128174,0.000960795209,3445.3599267536
1574854860.7004824,5.576348304748535,0.000972980633,3489.5978900432
1574854860.7506692,5.626535177230835,0.000980798155,3517.978621912
1574854860.7976727,5.673538684844971,0.000987864099,3543.6308250096004
1574854860.8445399,5.72040581703186,0.000986743718,3539.5633938272
1574854860.8913035,5.76716947555542,0.000986027531,3536.9633485424006
1574854860.9435997,5.819465637207031,0.00098547712,3534.965136448
1574854860.9853406,5.861206531524658,0.000985004008,3533.2475506432
1574854861.0321653,5.908031225204468,0.00098472368,3532.229847872
1574854861.0790837,5.954949617385864,0.000984359533,3530.9078486032004
1574854861.125955,6.001821041107178,0.000984255224,3530.5291652096003
1574854861.172826,6.048691987991333,0.00098398421,3529.5452759840005
1574854861.232836,6.108701944351196,0.000983797945,3528.869059528
1574854861.2690792,6.14494514465332,0.000983734615,3528.639146296
1574854861.3160493,6.191915273666382,0.000983424485,3527.513250344
1574854861.3785408,6.254406690597534,0.000983461738,3527.6484936352003
1574854861.4239335,6.29979944229126,0.000983261503,3526.9215604912
1574854861.4682593,6.344125270843506,0.000983078964,3526.2588709056
1574854861.5151663,6.3910322189331055,0.000983131118,3526.4482107872
1574854861.5621364,6.438002347946167,0.000982882455,3525.545464632
1574854861.6090043,6.484870195388794,0.000982907601,3525.6367546704005
1574854861.6558812,6.531747102737427,0.000982775353,3525.1566415312004
1574854861.702754,6.578619956970215,0.000982657075,3524.72724508
1574854861.7516956,6.627561569213867,0.000966537744,3466.2076258176003
1574854861.798697,6.674562931060791,0.000876263715,3138.4767909360003
1574854861.84557,6.721436023712158,0.00073978398,2643.0007609920003
1574854861.907118,6.782984018325806,0.000573515892,2039.3810943168003
1574854861.949239,6.8251049518585205,0.000398274511,1403.1847847344
1574854861.996115,6.871980905532837,0.000231192447,796.6100595887999
1574854862.0478423,6.923708200454712,9.5324591e-05,303.35539516639994
1574854862.0947108,6.970576763153076,1.4643185e-05,10.449618823999998
1574854862.141583,7.017448902130127,-5.9774145e-05,-259.715056008
1574854862.1884515,7.064317464828491,-0.000119190663,-475.4207829552
1574854862.241188,7.117053985595703,-0.000130577013,-516.7577879951999
1574854862.2849734,7.160839319229126,-0.000122400001,-487.0719636304
1574854862.3319228,7.207788705825806,-0.000120184384,-479.0283876736
1574854862.3845377,7.260403633117676,-0.000120093115,-478.69704469600003
1574854862.4336557,7.309521675109863,-0.000119877048,-477.9126350592
1574854862.4806523,7.356518268585205,-0.000119552016,-476.7326388864
1574854862.5275223,7.403388261795044,-0.000119597651,-476.8983121904
1574854862.5743933,7.450259208679199,-0.000119259581,-475.6709828624
1574854862.6212678,7.497133731842041,-0.000119232573,-475.57293301920004
1574854862.6680136,7.543879508972168,-0.000119186938,-475.4072597152
1574854862.7205672,7.596433162689209,-0.000118898228,-474.3591269312
1574854862.7685142,7.64438009262085,-0.000119049102,-474.90685990080004
1574854862.815492,7.691357851028442,-0.000118756667,-473.84520387680004
1574854862.864267,7.740133047103882,-0.000118790194,-473.96692029760004
1574854862.9016223,7.7774882316589355,-9.6517615e-05,-393.10854949599997
1574854862.9486287,7.8244946002960205,-9.263866e-06,-76.3425391264
1574854863.0110736,7.886939525604248,5.2389689e-05,147.4845269456
1574854863.0579922,7.933858156204224,0.000121144578,397.09227597119997
1574854863.1048658,7.980731725692749,0.000197273679,673.4713642416
1574854863.1516356,8.027501583099365,0.000276033767,959.4019877167999
1574854863.1986089,8.074474811553955,0.000353877433,1242.0056327632
1574854863.2355988,8.111464738845825,0.000424022786,1496.6613222944
1574854863.2982242,8.174090147018433,0.000488026999,1729.0222171696
1574854863.3441355,8.220001459121704,0.00054695271,1942.946118384
1574854863.384555,8.26042103767395,0.00059974473,2134.6022677920005
1574854863.4315512,8.307417154312134,0.000646380708,2303.9095223232002
1574854863.478422,8.35428786277771,0.000689335167,2459.8513902768
1574854863.5251625,8.401028394699097,0.000728297047,2601.2985994288
1574854863.572077,8.447942972183228,0.000762586482,2725.7829642528004
1574854863.6345308,8.510396718978882,0.000794555061,2841.8416934544002
1574854863.681529,8.557394981384277,0.000823579729,2947.2128481616
1574854863.7296185,8.60548448562622,0.000848936848,3039.2693329792
1574854863.7658966,8.641762495040894,0.000872218981,3123.7927886224
1574854863.8236785,8.699544429779053,0.00089404732,3203.0383905280005
1574854863.8681486,8.744014501571655,0.000913366675,3273.1753769200004
1574854863.9150734,8.790939331054688,0.000931645744,3339.5357090176003
1574854863.967925,8.843791007995605,0.000948433764,3400.4829368256005
1574854864.0149283,8.890794277191162,0.000963310711,3454.4922052144
1574854864.061801,8.937666893005371,0.000975879841,3500.1231747664
1574854864.1086729,8.984538793563843,0.000985218212,3534.0251968448
1574854864.1554995,9.031365394592285,0.000990094617,3551.7284975568004
1574854864.2023196,9.078185558319092,0.000988681801,3546.5994103504004
1574854864.2518408,9.12770676612854,0.000988148153,3544.6620546512
1574854864.3043554,9.180221319198608,0.000987551175,3542.4947857200004
1574854864.3524992,9.228365182876587,0.000987215899,3541.2775997296
1574854864.3994896,9.275355577468872,0.000986995175,3540.47628332
1574854864.4463656,9.322231531143188,0.000986617059,3539.1035709936
1574854864.4932373,9.369103193283081,0.00098661799,3539.106950896
1574854864.5401092,9.415975093841553,0.000986330211,3538.0621980144
1574854864.5869808,9.462846755981445,0.000986129977,3537.3352685008003
1574854864.6337216,9.509587526321411,0.000986112282,3537.271028572801
1574854864.680726,9.556591987609863,0.000985823572,3536.2228957888
1574854864.7337632,9.609629154205322,0.000985901803,3536.5069056112
1574854864.7835178,9.659383773803711,0.000985641964,3535.5635861056003
1574854864.8203616,9.696227550506592,0.00098558329,3535.3505760160006
1574854864.8828595,9.75872540473938,0.000985596329,3535.3979128016003
1574854864.929858,9.805723905563354,0.000985316932,3534.3835899328
1574854864.9767306,9.852596521377563,0.000985376537,3534.5999799248007
1574854865.0236044,9.899470329284668,0.000985236838,3534.0928166752
1574854865.070475,9.946341037750244,0.000985185616,3533.9068603264004
1574854865.1172142,9.993080139160156,0.000985210761,3533.9981467344005
1574854865.1642134,10.040079355239868,0.000961761922,3448.8694816288003
1574854865.2160778,10.091943740844727,0.000863957219,3093.7992878576006
1574854865.26545,10.141315937042236,0.000723059289,2582.2834427856
1574854865.3144662,10.190332174301147,0.000554282218,1969.5551642272
1574854865.3503814,10.226247310638428,0.000378336757,1330.8027626128
1574854865.411206,10.287071943283081,0.000212087296,727.2507193984
1574854865.4592295,10.335095405578613,8.2291663e-05,256.0406533552
1574854865.506982,10.382848024368286,2.385117e-06,-34.0520712432
1574854865.5547318,10.43059778213501,-7.7657402e-05,-324.6384322208
1574854865.6026418,10.47850775718689,-0.000135000795,-532.817886168
1574854865.6511362,10.527002096176147,-0.000143617392,-564.0995799168
1574854865.6992607,10.575126647949219,-0.000142198056,-558.9468225024
1574854865.7469695,10.622835397720337,-0.000141675584,-557.0500401536001
1574854865.7947109,10.670576810836792,-0.000141297467,-555.6773241968
1574854865.8430705,10.718936443328857,-0.000140846707,-554.0408850928
1574854865.8908858,10.766751766204834,-0.000140745193,-553.6723486672
1574854865.9385595,10.814425468444824,-0.000140356831,-552.2624392624
1574854865.9870071,10.862873077392578,-0.000140268356,-551.9412396224
1574854866.0350795,10.910945415496826,-0.000140111893,-551.3732163472
1574854866.08282,10.958685874938965,-0.000139853917,-550.4366602768
1574854866.1305134,11.00637936592102,-0.000139909796,-550.6395233984
1574854866.1792777,11.055143594741821,-0.000139596872,-549.5034841088
1574854866.2265205,11.102386474609375,-0.000139554963,-549.3513376751999
1574854866.2750742,11.150940179824829,-0.000139463693,-549.0199910672001
1574854866.3229825,11.198848485946655,-0.000139281154,-548.3573014816
1574854866.371039,11.246904850006104,-0.000139383599,-548.7292178096
1574854866.4144247,11.290290594100952,-0.000139155425,-547.90085492
1574854866.461298,11.337163925170898,-0.000139143318,-547.8569016672
1574854866.5081637,11.384029626846313,-0.000139098614,-547.6946082656
1574854866.5550377,11.430903673171997,-0.000138891861,-546.9440121744
1574854866.6018145,11.477680444717407,-0.00013906043,-547.555985072
1574854866.6487827,11.524648666381836,-0.000138754025,-546.44361236
1574854866.7059836,11.581849575042725,-0.000138816424,-546.6701456896
1574854866.750431,11.626296997070312,-0.000138869509,-546.8628654736
1574854866.7974334,11.673299312591553,-0.000138435513,-545.2872863952
1574854866.8443038,11.72016978263855,-0.000138930045,-547.0826353680001
1574854866.8910828,11.766948699951172,-0.000138420612,-545.2331898048
1574854866.946964,11.822829961776733,-0.000138540752,-545.6693460608
1574854866.9828103,11.858676195144653,-0.000138629228,-545.9905493312
1574854867.0296843,11.905550241470337,-6.5892935e-05,-281.928711224
1574854867.076555,11.952420949935913,1.2160279e-05,1.4356768816000027
1574854867.1390495,12.014915466308594,7.6160766e-05,233.78304488639998
1574854867.1867392,12.062605142593384,0.000146421604,488.8579911616
1574854867.2346072,12.110473155975342,0.000223253854,767.7897915615999
1574854867.2826874,12.1585533618927,0.000302476808,1055.4008037632
1574854867.3295553,12.205421209335327,0.000377346762,1327.2086847648
1574854867.376428,12.252293825149536,0.00044498127,1572.749002608
1574854867.423295,12.299160957336426,0.000505986623,1794.2228361392001
1574854867.4701695,12.346035480499268,0.000562855043,2000.6779481071999
1574854867.5169106,12.392776489257812,0.000613749027,2185.4434676208
1574854867.5639088,12.439774751663208,0.00065932516,2350.903060864
1574854867.6107826,12.486648559570312,0.000702021644,2505.9083763776002
1574854867.667389,12.543254852294922,0.000739356503,2641.4488484912004
1574854867.700224,12.576089859008789,0.000772355124,2761.2470421696003
1574854867.7609046,12.636770486831665,0.000803492963,2874.2898528752003
1574854867.809914,12.685780048370361,0.000831381418,2975.5360999072004
1574854867.858042,12.73390793800354,0.000856963918,3068.4108079072003
1574854867.906032,12.781898021697998,0.000878945924,3148.2142824896
1574854867.9540212,12.82988715171814,0.000900339335,3225.8809217840003
1574854868.0019102,12.877776145935059,0.000919563696,3295.6730419584
1574854868.0498729,12.92573881149292,0.000936451368,3356.9820463872
1574854868.0979826,12.973848581314087,0.00095312763,3417.523547952
1574854868.1458406,13.021706581115723,0.000966820866,3467.2354719264
1574854868.1938274,13.069693326950073,0.000978732482,3510.4794026528
1574854868.2418156,13.117681503295898,0.000989390537,3549.1724055248
1574854868.2898126,13.16567850112915,0.000995225273,3570.3548310992
1574854868.3377922,13.213658094406128,0.000996411778,3574.6623188512
1574854868.385909,13.261775016784668,0.000995404087,3571.0039974448
1574854868.4338315,13.309697389602661,0.000994834118,3568.9347819872
1574854868.479869,13.355734825134277,0.000994704664,3568.4648121856003
1574854868.5318267,13.407692670822144,0.000993988477,3565.8647669008
1574854868.5758545,13.451720476150513,0.000994006172,3565.9290068288
1574854868.623805,13.49967098236084,0.000993612222,3564.4988107488
1574854868.6718001,13.547666072845459,0.000993429683,3563.8361211632
1574854868.7197807,13.595646619796753,0.000993520953,3564.1674677712003
1574854868.7677958,13.643661737442017,0.000992930494,3562.0238654176
1574854868.8158858,13.691751718521118,0.000993175432,3562.9130883328003
1574854868.863751,13.739616870880127,0.000992796384,3561.5369924736
1574854868.91186,13.787725925445557,0.000992725603,3561.2800291312005
1574854868.9597187,13.83558464050293,0.000992805697,3561.5708023888005
