Time, Time Since Begin, V/V Raw Data, Force 
1574851738.2406826,0.250659704208374,4.1646883e-05,108.48384404320002
1574851738.2719307,0.2819077968597412,4.167296e-05,108.57851398400003
1574851738.3186977,0.3286747932434082,4.1786581e-05,108.99100366239999
1574851738.3670456,0.37702274322509766,4.1469932e-05,107.8414411328
1574851738.399999,0.4099760055541992,4.1265041e-05,107.09760484639999
1574851738.447003,0.45697999000549316,4.1100197e-05,106.4991551888
1574851738.4782512,0.48822832107543945,4.1187741e-05,106.8169749264
1574851738.5251222,0.5350992679595947,4.1302294e-05,107.23284813760002
1574851738.5719938,0.5819709300994873,4.1463412e-05,107.8177709248
1574851738.603245,0.6132221221923828,4.1695312e-05,108.65966068479999
1574851738.6572492,0.6672263145446777,4.1783787e-05,108.98086032480002
1574851738.7015483,0.7115254402160645,4.1766092e-05,108.91662039679998
1574851738.7328668,0.7428438663482666,4.1712075e-05,108.72051708
1574851738.77973,0.7897071838378906,4.1463412e-05,107.8177709248
1574851738.826505,0.836482048034668,4.1230582e-05,106.97250489280002
1574851738.868344,0.8783211708068848,4.1122548e-05,106.5802982592
1574851738.8996499,0.9096269607543945,4.1157007e-05,106.7053982128
1574851738.946495,0.9564721584320068,4.1249208e-05,107.04012472320001
1574851738.993466,1.0034430027008057,4.1431747e-05,107.7028143088
1574851739.0403333,1.0503103733062744,4.1653402e-05,108.5075106208
1574851739.0714595,1.0814366340637207,4.1780993e-05,108.97071698719999
1574851739.1207104,1.1306874752044678,4.1758642e-05,108.88957391679999
1574851739.1617196,1.171696662902832,4.1618943e-05,108.3824106672
1574851739.202435,1.2124121189117432,4.1446649e-05,107.7569145296
1574851739.2494056,1.259382724761963,4.1231513e-05,106.9758847952
1574851739.2806542,1.2906312942504883,4.112348e-05,106.58368179200001
1574851739.3280518,1.338028907775879,4.11449e-05,106.66144496
1574851739.368729,1.3787062168121338,4.1283667e-05,107.16522467680001
1574851739.4157312,1.425708293914795,4.839804e-05,132.99324441600004
1574851739.446975,1.4569520950317383,0.000119809061,392.2438150544
1574851739.4961002,1.5060772895812988,0.00020261202,692.851677408
1574851739.5328538,1.5428309440612793,0.000281463377,979.1136438607999
1574851739.57972,1.5896971225738525,0.000355927274,1249.4473755296
1574851739.6264963,1.6364734172821045,0.00042606052,1504.059111808
1574851739.6578424,1.6678194999694824,0.000492430292,1745.0079320768
1574851739.7047117,1.714688777923584,0.000552879646,1964.4632668384
1574851739.751483,1.7614600658416748,0.000581375323,2067.9139726192
1574851739.7984576,1.8084347248077393,0.000539808534,1917.0099018335998
1574851739.850201,1.860177993774414,0.000465025194,1645.5164642976001
1574851739.8832593,1.8932363986968994,0.000375664793,1321.1024645072
1574851739.9433076,1.953284740447998,0.00027905684,970.3769519360001
1574851739.9837587,1.9937357902526855,0.000186753459,635.2787575535999
1574851740.030631,2.0406081676483154,0.000104216859,335.6378849136
1574851740.0776293,2.087606430053711,4.3787993e-05,116.25692978720001
1574851740.124505,2.1344821453094482,6.784685e-06,-18.079879575999996
1574851740.1713734,2.1813504695892334,-2.0676292e-05,-117.7742104768
1574851740.2337499,2.243726968765259,-2.9763207e-05,-150.76334669279998
1574851740.2807436,2.2907207012176514,-2.9149465e-05,-148.535217736
1574851740.3276122,2.3375892639160156,-2.9098243e-05,-148.3492613872
1574851740.3690107,2.3789877891540527,-2.8504059e-05,-146.19213579360002
1574851740.4255896,2.4355666637420654,-2.8743409e-05,-147.0610720336
1574851740.469457,2.479434013366699,-2.8375536e-05,-145.7255458944
1574851740.516286,2.5262629985809326,-2.8325245e-05,-145.542969448
1574851740.5632,2.5731770992279053,-6.84522e-07,-45.1960886688
1574851740.610072,2.620048999786377,7.7995472e-05,240.44376154879996
1574851740.6629324,2.6729094982147217,0.000175980851,596.1698814704
1574851740.7098029,2.7197799682617188,0.000272433273,946.3307542992
1574851740.7566755,2.7666525840759277,0.000362323597,1272.6685865488
1574851740.8035488,2.813525915145874,0.000445298851,1573.9019486704
1574851740.8557265,2.865703582763672,0.000524401665,1861.0768046160001
1574851740.9051158,2.915092945098877,0.00059794914,2128.083557856
1574851740.949663,2.9596400260925293,0.000655788928,2338.0651242112003
1574851740.9966304,3.0066075325012207,0.00070393458,2512.853099232
1574851741.0435061,3.053483247756958,0.000744702294,2660.8562081376003
1574851741.0903795,3.1003565788269043,0.000780629925,2791.28787972
1574851741.1371484,3.147125482559204,0.000810868107,2901.0645756528
1574851741.186671,3.196648120880127,0.000805270858,2880.7443228832003
1574851741.2334976,3.2434747219085693,0.000726716593,2595.5609192272
1574851741.2805004,3.2904775142669678,0.000603403896,2147.8865040384003
1574851741.3273728,3.3373498916625977,0.000456838869,1615.7968300175999
1574851741.3862364,3.3962135314941406,0.000298698433,1041.6837911632
1574851741.4339907,3.443967819213867,0.000156496651,525.4344417904
1574851741.4809866,3.4909636974334717,4.6057627e-05,124.4966090608
1574851741.5278618,3.537838935852051,-3.645476e-05,-175.05636070399999
1574851741.574733,3.584710121154785,-0.000120886602,-481.5777199008
1574851741.6216056,3.631582736968994,-0.000156619586,-611.3027450144
1574851741.6683948,3.6783719062805176,-0.000143131241,-562.3346573264
1574851741.7153487,3.7253258228302,-0.00012813136,-507.879089344
1574851741.7622209,3.772197961807251,-0.000115535222,-462.1500699488
1574851741.8090887,3.819065809249878,-5.2036718e-05,-231.6251010272
1574851741.8659172,3.87589430809021,2.9576011e-05,64.6617503344
1574851741.9020133,3.9119904041290283,0.00012109708,396.919839232
1574851741.9488816,3.9588587284088135,0.000214443542,735.8048348768
1574851741.9957535,4.005730628967285,0.000305856578,1067.6707207712
1574851742.0582507,4.068227767944336,0.000393605791,1386.2354636464
1574851742.1029203,4.1128973960876465,0.000476491638,1687.1442425952
1574851742.1540675,4.164044618606567,0.00055399444,1968.510414976
1574851742.2008052,4.210782289505005,0.000624601729,2224.8431169616
1574851742.2478123,4.257789373397827,0.000686819665,2450.7191118160003
1574851742.2946787,4.3046557903289795,0.000743867829,2657.8267664016003
1574851742.342746,4.352723121643066,0.000794518739,2841.7098300656003
1574851742.384331,4.394308090209961,0.000835102051,2989.0434859504003
1574851742.4313302,4.441307306289673,0.000858507119,3074.0132448176
1574851742.4781997,4.4881768226623535,0.00087497104,3133.7838636160004
1574851742.5250742,4.535051345825195,0.000890648924,3190.7008536896
1574851742.5719438,4.581920862197876,0.000904136337,3239.6655578448003
1574851742.634339,4.64431619644165,0.000918576494,3292.0891038176005
1574851742.6813142,4.691291332244873,0.000932899304,3344.0866332416003
1574851742.7281818,4.738158941268921,0.000946581364,3393.7579838656
1574851742.7749262,4.784903287887573,0.000956390053,3429.3674484112003
1574851742.8264558,4.836432933807373,0.000968713313,3474.1058115152
1574851742.8688626,4.878839731216431,0.000983253121,3526.8911304784006
1574851742.9158664,4.9258434772491455,0.000996196643,3573.8812927472004
1574851742.9626071,4.972584247589111,0.001007821411,3616.0838504944
1574851743.009529,5.019506216049194,0.001018472016,3654.7498068864
1574851743.056403,5.066380023956299,0.001027544029,3687.6848428815997
1574851743.103357,5.1133341789245605,0.001037176698,3722.6552844192
1574851743.1500945,5.160071611404419,0.001048292033,3763.0083966032003
1574851743.1970978,5.207074880599976,0.001057315618,3795.7676195872
1574851743.2439716,5.25394868850708,0.001067810692,3833.8689362368004
1574851743.3032563,5.313233375549316,0.00107615348,3864.1565937920004
1574851743.3532577,5.363234758377075,0.001080649905,3880.480415112
1574851743.401175,5.411152124404907,0.001086972654,3903.4345230816
1574851743.4481478,5.458124876022339,0.001092046499,3921.8546099696
1574851743.495022,5.504999160766602,0.001096531749,3938.1378615696003
1574851743.5418882,5.551865339279175,0.001098390669,3944.8864847376003
1574851743.5887656,5.598742723464966,0.001097150147,3940.3828936688
1574851743.6356373,5.645614385604858,0.001094455831,3930.6014488624
1574851743.6981342,5.70811128616333,0.001092548482,3923.6770090528003
1574851743.745003,5.754980087280273,0.001091538928,3920.0119242112
1574851743.7917492,5.801726341247559,0.001090224832,3915.2412300928004
1574851743.838649,5.848626136779785,0.001089556143,3912.8136215472005
1574851743.8872073,5.897184371948242,0.00108887814,3910.352199456
1574851743.9341092,5.944086313247681,0.001071489416,3847.2241758464
1574851743.981078,5.991055011749268,0.000972255133,3486.9640348432004
1574851744.0328515,6.042828559875488,0.000815087929,2916.3842174416004
1574851744.068738,6.078715085983276,0.000623882748,2222.2329283392005
1574851744.1157124,6.125689506530762,0.00041873008,1477.446682432
1574851744.1782043,6.188181400299072,0.000222925097,766.5962721488
1574851744.2250738,6.235050916671753,7.3081814e-05,222.6052175456
1574851744.2729926,6.28296971321106,-2.8365292e-05,-145.6883560768
1574851744.3174841,6.327461242675781,-0.000129488297,-512.8053134288
1574851744.3699875,6.379964590072632,-0.000192415901,-741.2576869904001
1574851744.4179637,6.427940845489502,-0.000192984007,-743.3201390128
1574851744.4649687,6.474945783615112,-0.000175361522,-679.3434694688
1574851744.511836,6.521813154220581,-0.000158324838,-617.4934918752
1574851744.5587122,6.568689346313477,-0.000140596181,-553.1313755024
1574851744.6055794,6.615556478500366,-0.000125296414,-497.5871013856
1574851744.652372,6.662348985671997,-0.000117840245,-470.518225448
1574851744.699323,6.7093000411987305,-0.000115063041,-460.4358640464
1574851744.751595,6.7615721225738525,-0.000115345232,-461.4603302528
1574851744.8007016,6.810678720474243,-6.3615851e-05,-273.6619854704
1574851744.8487024,6.858679533004761,1.694262e-05,18.797487648000008
1574851744.8847985,6.894775629043579,0.00010251347,329.453901488
1574851744.9317732,6.9417502880096436,0.000193163753,658.5506888911999
1574851744.9941375,7.004114627838135,0.000284212641,989.0945718864
1574851745.0411355,7.051112651824951,0.000374115072,1315.4763573888
1574851745.0880158,7.097992897033691,0.000458791852,1622.8869395008
1574851745.1250517,7.135028839111328,0.00053688325,1906.3899508
1574851745.1719222,7.181899309158325,0.00060863141,2166.864470864
1574851745.2318847,7.241861820220947,0.00067349989,2402.363000656
1574851745.2681396,7.278116703033447,0.000731288455,2612.1586070320004
1574851745.3151395,7.3251166343688965,0.000783436932,2801.4784379328
1574851745.3680763,7.378053426742554,0.00082791131,2962.9382198240005
1574851745.415073,7.4250500202178955,0.000864443369,3095.5642068176003
1574851745.461947,7.471924066543579,0.000898296945,3218.4662291280006
1574851745.5088205,7.5187976360321045,0.000930217095,3334.349141688
1574851745.555694,7.56567120552063,0.000957143493,3432.1027369872004
1574851745.618059,7.628036022186279,0.00098140724,3520.1898440960003
1574851745.6649625,7.6749396324157715,0.001005354337,3607.1273850448
1574851745.714558,7.72453498840332,0.001025564969,3680.5000634576004
1574851745.7515695,7.761546611785889,0.001045452431,3752.6995055024
1574851745.7985404,7.8085174560546875,0.001061757095,3811.8919576880003
1574851745.8583696,7.868346691131592,0.001076209359,3864.3594569136
1574851745.8989294,7.90890645980835,0.001087671146,3905.9703284384
1574851745.9458437,7.955820798873901,0.001098496839,3945.2719243056
1574851745.992709,8.002686023712158,0.001108080149,3980.0631729296006
1574851746.039587,8.049564123153687,0.001114808954,4004.4914266016003
1574851746.0864553,8.096432447433472,0.001120598055,4025.5081788720004
1574851746.1331995,8.143176555633545,0.001127046533,4048.9187334032003
1574851746.190969,8.20094609260559,0.001129430719,4057.5742822576
1574851746.2351315,8.245108604431152,0.001125811599,4044.4354290096003
1574851746.2820847,8.292061805725098,0.001123376191,4035.5939238064
1574851746.3289528,8.338929891586304,0.001121395268,4028.4023809472005
1574851746.3766615,8.386638641357422,0.001120369881,4024.6798159823998
1574851746.423663,8.433640003204346,0.001119061373,4019.9294085392003
1574851746.470538,8.480515003204346,0.001118276268,4017.0791633472004
1574851746.517307,8.527284145355225,0.001117592677,4014.5974545808003
1574851746.5642765,8.574253559112549,0.001116738655,4011.497013112
1574851746.6111512,8.62112832069397,0.001116422005,4010.347446952
1574851746.6710563,8.681033372879028,0.001115651801,4007.5512983504004
1574851746.719379,8.729356050491333,0.001115280204,4006.2022526016003
1574851746.7661583,8.776135444641113,0.001114926301,4004.9174431504
1574851746.8131182,8.823095321655273,0.001103508286,3963.4654814944
1574851746.864879,8.874855995178223,0.001007310115,3614.227641496
1574851746.9006388,8.910615921020508,0.000849490985,3041.2810719440004
1574851746.9476137,8.957590818405151,0.000654548407,2333.5615367728
1574851747.0101078,9.020084857940674,0.000444436446,1570.7710735583998
1574851747.0569832,9.066960334777832,0.000242063776,836.0773323904
1574851747.1038532,9.113830327987671,8.4806234e-05,265.1695519136
1574851747.1517906,9.161767721176147,-1.7966144e-05,-107.9352891776
1574851747.199751,9.209728002548218,-0.000120372511,-479.7113639344
1574851747.2438078,9.253784894943237,-0.000190448947,-734.1168571888
1574851747.2907312,9.300708293914795,-0.000197714195,-760.492613528
1574851747.3463469,9.356323957443237,-0.000177187845,-685.973752488
1574851747.3829908,9.392967939376831,-0.000154110603,-602.1941331312
1574851747.4299934,9.43997049331665,-0.000133260153,-526.4986594512
1574851747.4768674,9.486844539642334,-0.00011730846,-468.587633184
1574851747.5338233,9.543800354003906,-0.000107129104,-431.63249916160004
1574851747.5808177,9.590794801712036,-0.000106363557,-428.8532573328
1574851747.6334558,9.643432855606079,-0.000106663443,-429.9419634672
1574851747.670444,9.680421113967896,-0.000106501393,-429.3536571472
1574851747.7173247,9.727301836013794,-0.000106331892,-428.7383007168
1574851747.7643151,9.774292230606079,-0.000106574968,-429.6207638272
1574851747.8111882,9.821165323257446,-0.000106121413,-427.9741777552
1574851747.8688211,9.878798246383667,-3.575813e-05,-172.52731515200003
1574851747.9158232,9.925800323486328,3.6410056e-05,89.47206730239999
1574851747.9781866,9.988163709640503,0.000128223561,422.79181585439994
1574851748.0094879,10.01946496963501,0.000217658468,747.4763022272
1574851748.056433,10.066410064697266,0.000308816321,1078.4157717584
1574851748.1108112,10.120788335800171,0.000398487784,1403.9590510336
1574851748.1516063,10.161583423614502,0.000480948016,1703.3226772864
1574851748.1986094,10.20858645439148,0.000557633117,1981.7202679568002
1574851748.2454798,10.255456924438477,0.000627589412,2235.6896013248
1574851748.2923481,10.302325248718262,0.00069118198,2466.556060192
1574851748.3543396,10.364316701889038,0.000747319311,2670.3570266544
1574851748.3988469,10.40882396697998,0.000796278007,2848.0966766128
1574851748.4457183,10.455695390701294,0.000836198218,2993.0230106272
1574851748.4925876,10.502564668655396,0.000873208977,3127.3868701008
1574851748.539459,10.549436092376709,0.000908293761,3254.7586699344
1574851748.5945613,10.604538440704346,0.00093929749,3367.314607696
1574851748.6346982,10.644675254821777,0.000967452303,3469.5278408112003
1574851748.6817014,10.691678524017334,0.000993875787,3565.4556571248004
1574851748.7285743,10.738551378250122,0.001018187962,3653.7185772448006
1574851748.7754452,10.785422325134277,0.001039606519,3731.4765065776005
1574851748.822317,10.83229398727417,0.001058280468,3799.2704110272007
1574851748.868231,10.87820816040039,0.001076489687,3865.3771596848
1574851748.9152343,10.925211429595947,0.001093109138,3925.7124145952002
1574851748.9777303,10.987707376480103,0.001108065248,3980.0090763392
1574851749.0246038,11.034580945968628,0.001120889559,4026.5664549936005
1574851749.0722747,11.082251787185669,0.001128694974,4054.9032336096
1574851749.1169293,11.126906394958496,0.001125370152,4042.8327998208
1574851749.1639318,11.173908948898315,0.001123365015,4035.5533504560003
1574851749.2107213,11.220698356628418,0.001121720299,4029.5823734896003
1574851749.2576764,11.267653465270996,0.001121032983,4027.0871414832004
1574851749.304549,11.314526081085205,0.001119933091,4023.0940935664
1574851749.3623354,11.372312545776367,0.001106146723,3973.0440631792003
1574851749.4019396,11.411916732788086,0.00100458134,3604.321096736
1574851749.4487116,11.458688735961914,0.000842726789,3016.7243347856
1574851749.495685,11.505662202835083,0.000646355562,2303.8182322848
1574851749.552001,11.561978101730347,0.000435705297,1539.0735102288
1574851749.5998354,11.609812498092651,0.000234741718,809.4953330272
1574851749.6468363,11.656813383102417,8.035358e-05,249.00463683199996
1574851749.6937094,11.703686475753784,-2.1357089e-05,-120.2457759056
1574851749.7405777,11.75055480003357,-0.000124014914,-492.93474378559995
1574851749.7873216,11.797298669815063,-0.000193402171,-744.8382415984
1574851749.8341973,11.8441743850708,-0.000200531445,-770.720357928
1574851749.8838942,11.893871307373047,-0.000186325982,-719.1488450528
1574851749.9308527,11.940829753875732,-0.00016664993,-647.716905872
1574851749.977771,11.987748146057129,-0.000146761537,-575.5140839248
1574851750.0341823,12.044159412384033,-6.9764443e-05,-295.98383386719996
1574851750.0672965,12.077273607254028,1.5367754e-05,13.080094121599998
1574851750.1299217,12.139898777008057,9.9667348e-05,319.1213401792
1574851750.1767938,12.186770915985107,0.000189173035,644.062786264
1574851750.2236664,12.233643531799316,0.000281431712,978.9986872448
1574851750.2705383,12.280515432357788,0.000370848924,1303.6189336896
1574851750.31732,12.32729721069336,0.000455504283,1610.9517490032
1574851750.3701797,12.380156755447388,0.00053405948,1896.1385361919997
1574851750.4179978,12.427974939346313,0.000605586916,2155.8117398464
1574851750.4649708,12.474947929382324,0.000671554357,2395.2999376528
1574851750.510449,12.520426034927368,0.000729369,2605.1902176000003
1574851750.562473,12.572450160980225,0.000779989175,2788.96170092
1574851750.599366,12.6093430519104,0.000821695663,2940.3729349552
1574851750.6463091,12.656286239624023,0.000859810971,3078.7467491184
1574851750.6930547,12.703031778335571,0.000895781443,3209.3339506672
1574851750.7397304,12.749707460403442,0.000928112306,3326.7079157024004
1574851750.8023388,12.812315940856934,0.000957019627,3431.6530538608004
1574851750.8498902,12.859867334365845,0.000984109938,3530.0017189152004
1574851750.8863487,12.896325826644897,0.001009635627,3622.6701802608
1574851750.9332201,12.943197250366211,0.001031364314,3701.5540055456
1574851750.993117,13.00309419631958,0.001049898565,3768.840750376
1574851751.0331204,13.043097496032715,0.001068838872,3837.6016409088006
1574851751.0801198,13.090096950531006,0.001085856929,3899.3839950416004
1574851751.124601,13.134577989578247,0.001101741567,3957.0515848368
1574851751.1714692,13.181446313858032,0.001116297208,4009.8943839232006
1574851751.2338674,13.243844509124756,0.001125084236,4041.7948103744006
1574851751.2808409,13.290817975997925,0.001128557138,4054.4028337952
1574851751.3277085,13.337685585021973,0.001126123592,4045.5680883968
1574851751.369092,13.379069089889526,0.001124238595,4038.7247952880007
1574851751.4160144,13.425991535186768,0.001123472117,4035.9421735568
1574851751.4732127,13.483189821243286,0.001122440211,4032.1959420144
1574851751.51714,13.527117013931274,0.001121780835,4029.8021433840004
1574851751.5641139,13.574090957641602,0.00112132635,4028.1521810400004
1574851751.6109877,13.620964765548706,0.001120555215,4025.3526525360007
1574851751.6578572,13.667834281921387,0.001120380126,4024.7170094304
1574851751.7047334,13.714710474014282,0.00111983344,4022.732320576
1574851751.7514982,13.761475324630737,0.001090620644,3916.6781859776006
1574851751.7984731,13.80845022201538,0.000973010436,3489.7060868544
1574851751.8583345,13.868311643600464,0.00080201216,2868.913945664
