Time, Time Since Begin, V/V Raw Data, Force 
1574855124.7559547,0.2385876178741455,-0.000149972737,-587.1720244048
1574855124.8187287,0.3013615608215332,-0.000150009058,-587.3038841632
1574855124.8502755,0.33290839195251465,-0.00015007332,-587.537180928
1574855124.8974428,0.38007569313049316,-0.000150143169,-587.7907607376
1574855124.9288843,0.4115171432495117,-0.000150120817,-587.7096140368
1574855124.9759116,0.4585444927215576,-0.000150111504,-587.6758041216
1574855125.0232,0.5058329105377197,-0.000149966218,-587.1483578272
1574855125.0546486,0.5372815132141113,-0.000149957836,-587.1179278144
1574855125.1065722,0.5892050266265869,-0.000149923377,-586.9928278608
1574855125.155823,0.638455867767334,-0.000149943866,-587.0672111264
1574855125.1919885,0.6746213436126709,-0.000149950385,-587.090877704
1574855125.2342994,0.7169322967529297,-0.000149993226,-587.2464076704
1574855125.2627614,0.745394229888916,-0.000150064938,-587.5067509152001
1574855125.3257527,0.8083856105804443,-0.000150125474,-587.7265208096001
1574855125.357218,0.839850902557373,-0.000150078908,-587.5574676032
1574855125.4047508,0.8873836994171143,-0.000150067732,-587.5168942528
1574855125.4331956,0.9158284664154053,-0.000150005333,-587.2903609232001
1574855125.4803836,0.9630165100097656,-0.000149924308,-586.9962077632
1574855125.5276453,1.0102782249450684,-0.000149873085,-586.810247784
1574855125.574811,1.0574438571929932,-0.000149901025,-586.9116811600001
1574855125.6061478,1.0887806415557861,-0.000149936415,-587.0401610160001
1574855125.6637414,1.146374225616455,-0.000150027685,-587.3715076240001
1574855125.713208,1.195840835571289,-0.000150064006,-587.5033673824
1574855125.728928,1.2115609645843506,-0.000150095671,-587.6183239984
1574855125.7762203,1.2588531970977783,-8.6963177e-05,-358.4221177808
1574855125.823383,1.306015968322754,3.146939e-05,71.535473456
1574855125.8705459,1.3531787395477295,0.000139654614,464.2911106656
1574855125.901986,1.3846187591552734,0.000281194225,978.1365144399999
1574855125.9490192,1.4316520690917969,0.00042368006,1495.417089824
1574855125.9963055,1.478938341140747,0.000555699691,1974.7011582064001
1574855126.0393715,1.5220043659210205,0.000677898526,2418.3318087904
1574855126.0683942,1.5510270595550537,0.000782340765,2797.498913256
1574855126.1155527,1.5981855392456055,0.000875333324,3135.0990994496
1574855126.1667404,1.6493732929229736,0.000958601944,3437.3974974976004
1574855126.1983128,1.680945634841919,0.001028676517,3691.7962273168
1574855126.245474,1.72810697555542,0.001094832085,3931.9674013840004
1574855126.2926345,1.7752673625946045,0.001165761612,4189.469956204799
1574855126.339801,1.8224339485168457,0.001232801937,4432.8531520848
1574855126.3869534,1.8695862293243408,0.001294755377,4657.7689206608
1574855126.4340224,1.9166553020477295,0.001352416351,4867.1013206704
1574855126.4913094,1.9739422798156738,0.001383074559,4978.402878993599
1574855126.53593,2.0185627937316895,0.001379818656,4966.5826487424
1574855126.583189,2.065821886062622,0.001377508976,4958.1975864704
1574855126.6303518,2.1129846572875977,0.001376219094,4953.5147988576
1574855126.6721268,2.154759645462036,0.001375264488,4950.049197235199
1574855126.719285,2.201917886734009,0.001374345273,4946.712079099199
1574855126.7822993,2.264932155609131,0.00137381535,4944.78824664
1574855126.8294604,2.3120932579040527,0.001373171806,4942.4519245024
1574855126.8766234,2.3592562675476074,0.001372758299,4940.9507286896
1574855126.9237843,2.40641713142395,0.001372314058,4939.337956163199
1574855126.9728768,2.455509662628174,0.00137185771,4937.681230384
1574855127.021334,2.503966808319092,0.001371686347,4937.059114148799
1574855127.0686235,2.5512564182281494,0.001371219754,4935.365194921599
1574855127.1157908,2.598423719406128,0.001370982267,4934.5030221168
1574855127.1679947,2.650627613067627,0.001370705664,4933.4988425856
1574855127.2047617,2.687394618988037,0.001327885315,4778.043847576
1574855127.25192,2.7345528602600098,0.001181458123,4246.4545697391995
1574855127.2990818,2.781714677810669,0.000972966664,3489.5471769856
1574855127.3619642,2.844597101211548,0.000733212568,2619.1439068672003
1574855127.4090796,2.8917124271392822,0.000484241173,1715.2781544592
1574855127.4561577,2.9387905597686768,0.000254978426,882.9626777503998
1574855127.5052023,2.987835168838501,8.2117505e-05,255.40839015199998
1574855127.5410945,3.0237274169921875,-3.0407682e-05,-153.1030487328
1574855127.5883877,3.0710206031799316,-0.000151100568,-591.2665020672
1574855127.6515992,3.1342320442199707,-0.000232110731,-885.3657978224
1574855127.6979861,3.18061900138855,-0.000250337645,-951.5367864080001
1574855127.7451506,3.227783441543579,-0.000240724534,-916.6373482336
1574855127.792309,3.274941921234131,-0.000226048753,-863.3583928912
1574855127.8394682,3.32210111618042,-0.000210939907,-808.5072383728
1574855127.8866255,3.369258403778076,-0.000194400549,-748.4627530896
1574855127.9405756,3.423208475112915,-0.000179962255,-696.045970552
1574855127.9778724,3.460505247116089,-0.000164452009,-639.7375734736
1574855128.0251489,3.507781744003296,-0.000151994638,-594.5123337952
1574855128.0723107,3.554943561553955,-0.000141486526,-556.3636839904001
1574855128.1350837,3.6177165508270264,-0.00013615191,-536.9968940639999
1574855128.1800194,3.6626522541046143,-0.000135932118,-536.1989611872
1574855128.2273092,3.709942102432251,-1.5276484e-05,-98.1707475136
1574855128.2744741,3.7571070194244385,9.751413e-05,311.304297552
1574855128.3216314,3.8042643070220947,0.000254592858,881.5629116831999
1574855128.3687112,3.851344108581543,0.000418149866,1475.3402735263999
1574855128.422169,3.904801845550537,0.000568416901,2020.8697173904
1574855128.4695537,3.9521865844726562,0.000703081489,2509.7560376656
1574855128.5167058,3.9993386268615723,0.000815867446,2919.2141759584
1574855128.5637696,4.046402454376221,0.000916117802,3283.1630683808003
1574855128.611029,4.093661785125732,0.001005184837,3606.5120322448
1574855128.6631813,4.1458141803741455,0.001079331152,3875.6928142208003
1574855128.699823,4.182455778121948,0.001153205521,4143.8863234384
1574855128.7628098,4.245442628860474,0.001221705228,4392.5676597311995
1574855128.8099709,4.2926037311553955,0.001285211183,4623.1196787632
1574855128.8571315,4.339764356613159,0.00134314131,4833.429211824
1574855128.9072418,4.389874696731567,0.001378945075,4963.41120028
1574855128.9514682,4.434101104736328,0.001379584894,4965.7339991776
1574855128.998712,4.481344938278198,0.00137731526,4957.494319904
1574855129.0458736,4.528506517410278,0.001376062632,4952.9467792128
1574855129.0929375,4.575570344924927,0.001375176013,4949.7279975952
1574855129.1401973,4.622830152511597,0.001374374144,4946.816892377599
1574855129.1861644,4.668797254562378,0.001373901032,4945.0993065728
1574855129.2334547,4.716087579727173,0.001373321749,4942.9962775696
1574855129.2806187,4.763251543045044,0.001372922212,4941.545798444799
1574855129.3590882,4.841721057891846,0.001372599043,4940.3725657072
1574855129.39053,4.8731629848480225,0.001372199506,4938.9220865824
1574855129.4382236,4.920856475830078,0.001371991821,4938.168106958399
1574855129.4855196,4.9681525230407715,0.00137161836,4936.812294144
1574855129.5326781,5.015311002731323,0.001371401362,4936.0245046048
1574855129.57984,5.062472820281982,0.001371204853,4935.3110983312
1574855129.6270027,5.109635591506958,0.001370863058,4934.0702457632
1574855129.6785157,5.161148548126221,0.001370769925,4933.73213572
1574855129.7225718,5.205204725265503,0.001358356327,4888.6658095408
1574855129.769831,5.2524638175964355,0.001243875362,4473.0541142048
1574855129.816997,5.2996299266815186,0.00105601456,3791.044258624
1574855129.8721764,5.354809284210205,0.000830906443,2973.8117506672
1574855129.9205334,5.4031662940979,0.000589107163,2095.9836445552
1574855129.967597,5.45022988319397,0.000353730284,1241.4714230336
1574855130.0148523,5.497485160827637,0.000154347159,517.6309260336
1574855130.0620208,5.544653654098511,2.732221e-05,56.479551184
1574855130.1090739,5.5917067527771,-8.6388551e-05,-356.3359955504
1574855130.1626785,5.64531135559082,-0.000185853802,-717.4346427808
1574855130.2077172,5.69035005569458,-0.00023622904,-900.316906816
1574855130.25501,5.737642765045166,-0.000225133263,-860.0347979952
1574855130.3021677,5.7848005294799805,-0.000202542171,-778.0200975984
1574855130.3566809,5.839313745498657,-0.000178847462,-691.9988260448
1574855130.3952165,5.877849340438843,-0.000156172551,-609.6798291504
1574855130.442322,5.924954891204834,-0.000136810355,-539.387312792
1574855130.4895864,5.972219228744507,-0.000121586956,-484.1202850624
1574855130.5367453,6.019378185272217,-0.00011019595,-442.76637688
1574855130.5839064,6.066539287567139,-0.000104232691,-421.11736140640005
1574855130.6310692,6.113702058792114,-0.000100097619,-406.1053960176
1574855130.6915703,6.174203157424927,-9.8653138e-05,-400.8613521952
1574855130.7282941,6.2109270095825195,-5.4197386e-05,-239.46919013439998
1574855130.7912743,6.27390718460083,5.9308484e-05,172.6025203136
1574855130.83666,6.319292783737183,0.000201536343,688.9465396272
1574855130.878135,6.360767841339111,0.000367327593,1290.8350936272
1574855130.9253967,6.408029556274414,0.000523342751,1857.2325232304001
1574855130.972557,6.455189943313599,0.00066583883,2374.5502884320003
1574855131.0197182,6.5023510456085205,0.000785975717,2810.6952429968
1574855131.06688,6.54951286315918,0.000888860784,3184.2091902336
1574855131.129632,6.61226487159729,0.000984321348,3530.7692217792
1574855131.176922,6.659554958343506,0.001060983166,3809.0822858464
1574855131.2151287,6.697761535644531,0.001136114821,4081.8402461584005
1574855131.26229,6.744922876358032,0.001205954701,4335.3869465104
1574855131.3209567,6.803589582443237,0.001269385219,4565.6650990576
1574855131.3654537,6.848086595535278,0.00132840313,4779.923723152
1574855131.4127154,6.895348310470581,0.001371876337,4937.7488538448
1574855131.4650006,6.947633504867554,0.001379573718,4965.6934258271995
1574855131.5008824,6.98351526260376,0.001377097331,4956.7031504624
1574855131.563763,7.046395778656006,0.001375570893,4951.1615699471995
1574855131.6109266,7.093559503555298,0.001374815591,4948.419521566399
1574855131.658087,7.140719890594482,0.001374000683,4945.4610795632
1574855131.701475,7.184107780456543,0.001373442821,4943.4358173584
1574855131.748765,7.231397867202759,0.001373030245,4941.938001448
1574855131.805568,7.288200855255127,0.001372510567,4940.0513624368
1574855131.850441,7.333073854446411,0.001372286119,4939.2365264176
1574855131.897599,7.380231857299805,0.001371852122,4937.6609437088
1574855131.9447632,7.427396059036255,0.001371567138,4936.6263377952
1574855131.9919224,7.474555253982544,0.001371399499,4936.0177411696
1574855132.0389857,7.521618604660034,0.001344637014,4838.8592156256
1574855132.0861118,7.568744659423828,0.001213081181,4361.258919502399
1574855132.1334052,7.616038084030151,0.00101262331,3633.5166646240004
1574855132.1896555,7.672288417816162,0.000779198483,2786.0911726832
1574855132.2378228,7.720455646514893,0.000533935614,1895.6888530656
1574855132.2873173,7.7699501514434814,0.000301321968,1051.2082726272
1574855132.33629,7.818922758102417,0.000113375485,368.887360744
1574855132.383451,7.866083860397339,-3.15718e-07,-43.8571826272
1574855132.4306111,7.913244009017944,-0.000120235607,-479.21434765280003
1574855132.477776,7.960408926010132,-0.000209473073,-803.1820442192001
1574855132.5249298,8.007562637329102,-0.000243555754,-926.9158093216
1574855132.5719614,8.054594278335571,-0.000231826678,-884.3345718112
1574855132.6192513,8.101884126663208,-0.000212000683,-812.3582795632001
1574855132.6664166,8.149049520492554,-0.000190257095,-733.420357688
1574855132.7085674,8.191200256347656,-0.000168913044,-655.9329149376
1574855132.76888,8.2515127658844,-0.000150688924,-589.7720696896
1574855132.8063648,8.288997650146484,-0.000134104863,-529.5652946352001
1574855132.8536212,8.336254119873047,-0.000120918266,-481.69267288640003
1574855132.9163709,8.399003744125366,-0.000111391768,-447.1076745472
1574855132.963665,8.446297883987427,-1.222827e-06,-47.1503511408
1574855133.0108247,8.493457555770874,0.00011249911,365.705768944
1574855133.0578883,8.540521144866943,0.000273373909,949.7456392336
1574855133.1051435,8.58777642250061,0.000436712056,1542.7284481024
1574855133.1523094,8.634942293167114,0.000586312264,2085.8370432256
1574855133.2048247,8.68745756149292,0.000719795004,2570.4327825216005
1574855133.254436,8.737068891525269,0.000830453821,2972.1685517584
1574855133.2965353,8.779168128967285,0.000929837115,3332.969662296
1574855133.3437026,8.826335430145264,0.0010180315,3653.1505576
1574855133.3909836,8.873616456985474,0.001091725193,3920.6881406672005
1574855133.438145,8.920777797698975,0.001165713184,4189.2941431936
1574855133.4851854,8.967818260192871,0.001233141869,4434.0872412176
1574855133.5359628,9.018595695495605,0.00129548274,4660.409539296
1574855133.583258,9.065890789031982,0.001347672194,4849.8781330976
1574855133.6303132,9.112946033477783,0.001373420469,4943.3546706576
1574855133.6775784,9.160211324691772,0.001371073537,4934.8343687248
1574855133.736838,9.219470977783203,0.001369312406,4928.4407587424
1574855133.781573,9.264205932617188,0.001368391328,4925.0968771712
1574855133.8287373,9.311370134353638,0.001367659308,4922.4393517632
1574855133.8759005,9.358533382415771,0.001367031597,4920.1605097488
1574855133.923017,9.405649900436401,0.001366659068,4918.8080804672
1574855133.9702241,9.45285701751709,0.001366133802,4916.9011547807995
1574855134.0173786,9.500011444091797,0.001365887932,4916.0085483328
1574855134.0644119,9.54704475402832,0.001365576871,4914.8792724784
1574855134.111707,9.594339847564697,0.00136523135,4913.62489304
1574855134.1588628,9.641495704650879,0.001365100965,4913.151543336
1574855134.220351,9.702983856201172,0.001320831478,4752.4355977312
1574855134.2654364,9.748069286346436,0.001177757978,4233.0215633312
1574855134.3127296,9.79536247253418,0.000973069109,3489.9190933136
1574855134.35976,9.842392921447754,0.000741637312,2649.7290974848
1574855134.4069407,9.889573574066162,0.000501629896,1778.4061744383998
1574855134.4541578,9.936790704727173,0.000276737846,961.9580761184001
1574855134.503643,9.986275911331177,0.000101846643,327.03305274720003
1574855134.5507042,10.033337116241455,-7.80914e-06,-71.061301856
1574855134.5979624,10.080595254898071,-0.000124596059,-495.04453259359997
1574855134.6451278,10.127760648727417,-0.000206665136,-792.9881097344
1574855134.7012877,10.183920621871948,-0.000233751722,-891.3232515488
1574855134.7441993,10.226832151412964,-0.000220860355,-844.522432792
1574855134.791494,10.274126768112183,-0.00020154193,-774.3888226720001
1574855134.838655,10.321287870407104,-0.000180351548,-697.4592598592
1574855134.8878691,10.37050199508667,-0.000159489922,-621.7232128288
1574855134.9351618,10.417794704437256,-0.000141363591,-555.9173807664
1574855134.9823203,10.464953184127808,-0.000126093626,-500.48129983039996
1574855135.0293822,10.512015104293823,-0.00011518877,-460.892310608
1574855135.0766451,10.559278011322021,-0.000107035041,-431.2910128464
1574855135.1238086,10.606441497802734,-0.000106500462,-429.3502772448
1574855135.1860316,10.668664455413818,-0.000106641091,-429.86081676640003
1574855135.234563,10.717195987701416,-0.000106493011,-429.3232271344
1574855135.2732058,10.755838632583618,-0.000106524676,-429.4381837504
1574855135.3204927,10.803125619888306,-0.000106564723,-429.5835703792
1574855135.36766,10.850292921066284,-0.000106417574,-429.04936064960003
1574855135.4148185,10.897451400756836,-2.2204593e-05,-123.3225544272
1574855135.4619806,10.944613456726074,8.8151544e-05,277.3143653376
1574855135.5090098,10.991642713546753,0.000243253075,840.39496348
1574855135.5720246,11.054657459259033,0.000408153981,1439.0512126224
1574855135.6191797,11.101812601089478,0.000560973771,1993.8481782384001
1574855135.6662169,11.148849725723267,0.000698656775,2493.6925559600004
1574855135.7151427,11.197775602340698,0.000815100037,2916.4281743248002
1574855135.7591622,11.241795063018799,0.000918745995,3292.7044602480005
1574855135.806371,11.289003849029541,0.00100694038,3612.8853555520004
1574855135.8536186,11.336251497268677,0.001083600335,3891.1916561840003
1574855135.9007788,11.383411645889282,0.001157068647,4157.9110160688
1574855135.9479415,11.430574417114258,0.001226145774,4408.6886179296
1574855135.9950967,11.477729558944702,0.00128885638,4636.353201952
1574855136.0422604,11.524893283843994,0.001343530603,4834.8425011312
1574855136.0894275,11.572060346603394,0.001375149004,4949.6299441216
1574855136.1490505,11.631683349609375,0.001374978572,4949.0112077888
1574855136.1938457,11.676478624343872,0.001373207197,4942.5804079888
1574855136.2483928,11.731025695800781,0.001372087747,4938.516356708799
1574855136.2955823,11.778215169906616,0.00137121696,4935.355051584
1574855136.342845,11.825477838516235,0.001370771788,4933.7388991552
1574855136.3900073,11.872640132904053,0.00137009006,4931.263953824
1574855136.437168,11.919800758361816,0.001369728707,4929.952097892799
1574855136.4843256,11.96695852279663,0.001369355246,4928.5962850784
1574855136.5314052,12.0140380859375,0.001368955709,4927.1458059536
1574855136.5786555,12.061288356781006,0.001368821599,4926.6589330096
1574855136.6315494,12.114182233810425,0.00136847049,4925.384266896001
1574855136.681359,12.163991928100586,0.001368325204,4924.8568206016
1574855136.7299943,12.212627172470093,0.001368105412,4924.0588877248
1574855136.766552,12.249184846878052,0.001306355931,4699.883571902399
1574855136.8137195,12.29635238647461,0.001147004776,4121.375138790399
1574855136.876602,12.359234809875488,0.000928457826,3327.9622915104
1574855136.9237604,12.40639328956604,0.000683438033,2438.4424350032
1574855136.970922,12.45355486869812,0.000435149297,1537.0550078288002
1574855137.017977,12.500609874725342,0.000213620253,732.8159664912
1574855137.0652416,12.547874450683594,5.6191348e-05,161.28606977920003
1574855137.1153054,12.597938299179077,-5.7238154e-05,-250.50839428159998
1574855137.1521235,12.634756326675415,-0.000171610154,-665.7245030816
1574855137.2130432,12.69567608833313,-0.000242180191,-921.9219654064001
1574855137.2535424,12.736175298690796,-0.000248507597,-944.8929801488001
1574855137.3006282,12.783261060714722,-0.000231088139,-881.6533798256
1574855137.3478675,12.830500364303589,-0.000209494494,-803.2598110176
1574855137.3950288,12.87766170501709,-0.000184871256,-713.8676077824
1574855137.4421904,12.92482328414917,-0.00016110111,-627.572469744
1574855137.502722,12.985354900360107,-0.000140686519,-553.4593385776
1574855137.5385926,13.021225452423096,-0.000122215599,-486.40251060960003
1574855137.6006546,13.083287477493286,-0.000109674409,-440.8729744336
1574855137.637111,13.119743824005127,-9.9631026e-05,-404.4114767904
1574855137.6843758,13.167008638381958,-9.459164e-05,-386.116489856
1574855137.738222,13.220854759216309,-9.6100383e-05,-391.59383044320003
1574855137.7855134,13.268146276473999,-9.5093623e-05,-387.9388889392
1574855137.832671,13.315303802490234,-9.6026808e-05,-391.3267237632
1574855137.8798356,13.362468481063843,-9.5860101e-05,-390.7215106704
1574855137.927001,13.409633874893188,-9.5342286e-05,-388.84163509440003
1574855137.974161,13.456793785095215,-9.6350908e-05,-392.5033364032
1574855138.0213196,13.503952503204346,-9.5231459e-05,-388.4392887536
1574855138.0807188,13.56335163116455,-7.3102303e-05,-308.1016008112
1574855138.125041,13.60767388343811,4.2471103e-05,111.47609233120001
1574855138.1722841,13.654917001724243,0.000175931491,595.9906849264
1574855138.2286835,13.711316347122192,0.000339083374,1188.2972809695998
1574855138.2729955,13.75562834739685,0.000498686917,1767.7219834768002
1574855138.3201482,13.802781105041504,0.00064117834,2285.022845536
1574855138.36731,13.849942922592163,0.000765609555,2736.7579284720005
1574855138.414386,13.897018909454346,0.000871159136,3119.9451273344002
1574855138.4616327,13.944265604019165,0.000963668339,3455.7905379056006
1574855138.5086606,13.99129343032837,0.00104550086,3752.875322144
